timestamp,red,ir
5014219,80583,112999
5024219,80579,113001
5034219,80588,113033
5044219,80587,113026
5054219,80589,113045
5064219,80589,113044
5074219,80601,113057
5084219,80604,113065
5094219,80590,113087
5104219,80598,113081
5114219,80601,113090
5124219,80607,113095
5134219,80597,113111
5144219,80605,113112
5155219,80589,113114
5165219,80599,113129
5175219,80604,113114
5185219,80595,113129
5195219,80603,113139
5205219,80603,113144
5215219,80603,113159
5225219,80616,113171
5235219,80607,113174
5245219,80609,113166
5255219,80615,113179
5265219,80621,113187
5275219,80622,113192
5285219,80627,113210
5295219,80617,113213
5305219,80619,113239
5315219,80627,113234
5325219,80626,113240
5335219,80633,113246
5346219,80618,113239
5356219,80627,113258
5366219,80625,113258
5376219,80619,113256
5386219,80618,113267
5396219,80621,113264
5406219,80624,113264
5416219,80618,113269
5426219,80623,113271
5436219,80629,113282
5446219,80642,113287
5456219,80635,113278
5466219,80628,113293
5476219,80635,113299
5486219,80636,113300
5496219,80628,113288
5506219,80623,113291
5516219,80625,113287
5526219,80615,113288
5536219,80616,113284
5547219,80623,113275
5557219,80623,113269
5567219,80623,113290
5577219,80616,113297
5587219,80619,113300
5597219,80627,113300
5607219,80623,113309
5617219,80614,113306
5627219,80628,113310
5637219,80627,113296
5647219,80614,113263
5657219,80606,113233
5667219,80597,113181
5677219,80577,113147
5687219,80571,113101
5697219,80565,113078
5707219,80569,113083
5717219,80554,113077
5727219,80555,113095
5738219,80554,113113
5748219,80560,113135
5758219,80575,113166
5768219,80568,113199
5778219,80577,113212
5788219,80590,113235
5798219,80585,113258
5808219,80587,113275
5818219,80610,113294
5828219,80613,113298
5838219,80614,113323
5848219,80621,113333
5858219,80612,113341
5868219,80626,113355
5878219,80622,113366
5888219,80621,113377
5898219,80628,113395
5908219,80614,113383
5918219,80616,113390
5929219,80623,113389
5939219,80618,113393
5949219,80623,113412
5959219,80612,113418
5969219,80612,113417
5979219,80626,113422
5989219,80613,113433
5999219,80616,113435
6009219,80624,113437
6019219,80628,113451
6029219,80633,113449
6039219,80627,113444
6049219,80625,113447
6059219,80630,113455
6069219,80626,113454
6079219,80631,113461
6089219,80627,113457
6099219,80616,113453
6109219,80630,113464
6120219,80620,113458
6130219,80619,113476
6140219,80618,113468
6150219,80613,113485
6160219,80631,113484
6170219,80617,113494
6180219,80627,113493
6190219,80618,113517
6200219,80619,113510
6210219,80630,113510
6220219,80632,113513
6230219,80639,113515
6240219,80631,113524
6250219,80625,113540
6260219,80631,113529
6270219,80633,113535
6280219,80630,113526
6290219,80620,113537
6300219,80628,113537
6311219,80621,113546
6321219,80627,113544
6331219,80620,113552
6341219,80614,113546
6351219,80624,113548
6361219,80617,113558
6371219,80630,113569
6381219,80626,113592
6391219,80623,113585
6401219,80638,113593
6411219,80643,113602
6421219,80638,113592
6431219,80637,113600
6441219,80636,113594
6451219,80632,113591
6461219,80637,113592
6471219,80627,113590
6481219,80620,113588
6491219,80624,113595
6502219,80619,113588
6512219,80623,113603
6522219,80618,113594
6532219,80617,113600
6542219,80625,113602
6552219,80629,113592
6562219,80624,113597
6572219,80618,113599
6582219,80617,113598
6592219,80620,113594
6602219,80618,113582
6612219,80629,113551
6622219,80615,113526
6632219,80605,113467
6642219,80582,113411
6652219,80568,113367
6662219,80557,113343
6672219,80554,113337
6682219,80549,113338
6693219,80545,113343
6703219,80560,113372
6713219,80553,113374
6723219,80553,113406
6733219,80569,113420
6743219,80576,113436
6753219,80576,113441
6763219,80579,113460
6773219,80585,113473
6783219,80586,113501
6793219,80591,113504
6803219,80599,113515
6813219,80596,113535
6823219,80600,113559
6833219,80592,113541
6843219,80598,113556
6853219,80606,113558
6863219,80592,113556
6873219,80605,113556
6884219,80599,113563
6894219,80605,113562
6904219,80606,113578
6914219,80600,113579
6924219,80612,113586
6934219,80599,113589
6944219,80604,113588
6954219,80607,113600
6964219,80606,113609
6974219,80615,113609
6984219,80614,113604
6994219,80617,113605
7004219,80614,113605
7014219,80611,113609
7024219,80609,113597
7034219,80608,113588
7044219,80617,113608
7054219,80603,113598
7064219,80595,113600
7075219,80604,113604
7085219,80600,113594
7095219,80607,113611
7105219,80602,113615
7115219,80597,113604
7125219,80607,113597
7135219,80597,113602
7145219,80604,113595
7155219,80598,113596
7165219,80610,113582
7175219,80602,113583
7185219,80614,113577
7195219,80601,113565
7205219,80605,113583
7215219,80601,113556
7225219,80594,113555
7235219,80607,113566
7245219,80593,113550
7255219,80592,113553
7266219,80597,113552
7276219,80586,113553
7286219,80591,113546
7296219,80579,113565
7306219,80582,113553
7316219,80591,113563
7326219,80588,113574
7336219,80586,113575
7346219,80587,113591
7356219,80588,113591
7366219,80606,113581
7376219,80601,113589
7386219,80601,113580
7396219,80589,113578
7406219,80590,113574
7416219,80585,113527
7426219,80569,113458
7436219,80551,113371
7447219,80526,113283
7457219,80499,113200
7467219,80480,113142
7477219,80461,113088
7487219,80445,113038
7497219,80446,113035
7507219,80445,113036
7517219,80454,113052
7527219,80445,113090
7537219,80465,113143
7547219,80479,113185
7557219,80491,113229
7567219,80499,113267
7577219,80509,113292
7587219,80515,113308
7597219,80519,113325
7607219,80518,113324
7617219,80517,113331
7627219,80520,113345
7638219,80512,113359
7648219,80530,113379
7658219,80526,113398
7668219,80517,113419
7678219,80540,113429
7688219,80538,113436
7698219,80541,113457
7708219,80545,113474
7718219,80539,113472
7728219,80548,113470
7738219,80543,113480
7748219,80552,113484
7758219,80561,113506
7768219,80550,113513
7778219,80552,113507
7788219,80557,113509
7798219,80548,113505
7808219,80547,113503
7818219,80546,113509
7829219,80547,113518
7839219,80546,113536
7849219,80550,113556
7859219,80544,113562
7869219,80548,113552
7879219,80552,113573
7889219,80552,113586
7899219,80559,113599
7909219,80549,113610
7919219,80571,113604
7929219,80562,113620
7939219,80564,113635
7949219,80573,113629
7959219,80572,113630
7969219,80576,113620
7979219,80570,113639
7989219,80563,113632
7999219,80569,113631
8010219,80561,113638
8020219,80568,113646
8030219,80563,113645
8040219,80556,113648
8050219,80568,113660
8060219,80554,113664
8070219,80562,113661
8080219,80568,113677
8090219,80564,113688
8100219,80569,113683
8110219,80570,113683
8120219,80577,113685
8130219,80579,113693
8140219,80564,113710
8150219,80570,113701
8160219,80575,113707
8170219,80583,113710
8180219,80569,113700
8190219,80561,113707
8201219,80572,113708
8211219,80565,113710
8221219,80571,113715
8231219,80557,113714
8241219,80556,113718
8251219,80565,113727
8261219,80570,113727
8271219,80563,113737
8281219,80556,113753
8291219,80571,113756
8301219,80585,113754
8311219,80577,113746
8321219,80572,113751
8331219,80565,113750
8341219,80578,113741
8351219,80573,113701
8361219,80554,113629
8371219,80528,113539
8381219,80501,113434
8392219,80470,113317
8402219,80442,113202
8412219,80406,113114
8422219,80399,113063
8432219,80390,113055
8442219,80397,113075
8452219,80400,113118
8462219,80414,113164
8472219,80428,113219
8482219,80453,113260
8492219,80455,113312
8502219,80469,113338
8512219,80479,113368
8522219,80483,113398
8532219,80483,113420
8542219,80495,113442
8552219,80495,113456
8562219,80491,113489
8572219,80501,113482
8583219,80498,113505
8593219,80495,113512
8603219,80504,113544
8613219,80505,113557
8623219,80507,113567
8633219,80523,113581
8643219,80514,113604
8653219,80523,113614
8663219,80534,113622
8673219,80534,113622
8683219,80529,113630
8693219,80526,113629
8703219,80536,113637
8713219,80541,113660
8723219,80538,113658
8733219,80533,113658
8743219,80531,113672
8753219,80546,113672
8764219,80537,113663
8774219,80542,113687
8784219,80535,113687
8794219,80533,113698
8804219,80545,113725
8814219,80545,113720
8824219,80553,113723
8834219,80551,113738
8844219,80552,113732
8854219,80550,113741
8864219,80552,113744
8874219,80567,113755
8884219,80562,113751
8894219,80562,113748
8904219,80558,113745
8914219,80550,113759
8924219,80556,113738
8934219,80555,113743
8944219,80552,113751
8955219,80547,113749
8965219,80551,113772
8975219,80561,113771
8985219,80555,113771
8995219,80564,113774
9005219,80560,113781
9015219,80557,113784
9025219,80562,113799
9035219,80553,113789
9045219,80562,113794
9055219,80565,113794
9065219,80572,113810
9075219,80574,113810
9085219,80572,113813
9095219,80570,113812
9105219,80573,113813
9115219,80583,113815
9125219,80565,113814
9135219,80564,113821
9146219,80575,113826
9156219,80566,113822
9166219,80572,113836
9176219,80567,113846
9186219,80564,113856
9196219,80580,113862
9206219,80579,113874
9216219,80570,113876
9226219,80559,113888
9236219,80581,113908
9246219,80584,113909
9256219,80590,113921
9266219,80594,113930
9276219,80584,113931
9286219,80579,113943
9296219,80591,113940
9306219,80589,113933
9316219,80591,113931
9326219,80580,113911
9337219,80580,113884
9347219,80564,113818
9357219,80543,113768
9367219,80536,113741
9377219,80526,113710
9387219,80521,113704
9397219,80522,113705
9407219,80530,113746
9417219,80544,113753
9427219,80537,113781
9437219,80558,113791
9447219,80560,113808
9457219,80562,113827
9467219,80565,113829
9477219,80570,113864
9487219,80571,113843
9497219,80566,113860
9507219,80566,113866
9517219,80571,113872
9528219,80568,113890
9538219,80578,113884
9548219,80568,113906
9558219,80573,113903
9568219,80577,113918
9578219,80578,113919
9588219,80583,113919
9598219,80585,113945
9608219,80588,113938
9618219,80592,113941
9628219,80583,113944
9638219,80596,113941
9648219,80585,113959
9658219,80588,113942
9668219,80585,113941
9678219,80586,113948
9688219,80583,113957
9698219,80577,113953
9708219,80582,113955
9719219,80583,113959
9729219,80582,113964
9739219,80591,113986
9749219,80579,113993
9759219,80583,113987
9769219,80599,113999
9779219,80585,114002
9789219,80581,114011
9799219,80587,114031
9809219,80598,114027
9819219,80595,114026
9829219,80595,114024
9839219,80596,114031
9849219,80591,114047
9859219,80591,114033
9869219,80589,114027
9879219,80582,114023
9889219,80586,114032
9900219,80581,114026
9910219,80591,114036
9920219,80586,114026
9930219,80578,114030
9940219,80589,114039
9950219,80577,114029
9960219,80578,114028
9970219,80580,114028
9980219,80574,114031
9990219,80578,114026
10000219,80582,114035
10010219,80589,114032
10020219,80582,114034
10030219,80588,114029
10040219,80578,114038
10050219,80585,114023
10060219,80580,114021
10070219,80577,114032
10080219,80568,114028
10091219,80578,114030
10101219,80581,114040
10111219,80575,114051
10121219,80571,114043
10131219,80561,114047
10141219,80579,114055
10151219,80572,114044
10161219,80573,114054
10171219,80576,114070
10181219,80573,114062
10191219,80583,114067
10201219,80594,114066
10211219,80589,114062
10221219,80582,114068
10231219,80582,114064
10241219,80578,114052
10251219,80586,114058
10261219,80574,114051
10271219,80563,114031
10282219,80568,113997
10292219,80545,113911
10302219,80523,113789
10312219,80476,113668
10322219,80450,113516
10332219,80419,113394
10342219,80399,113310
10352219,80367,113289
10362219,80372,113291
10372219,80390,113339
10382219,80411,113380
10392219,80418,113417
10402219,80427,113470
10412219,80432,113501
10422219,80442,113546
10432219,80452,113565
10442219,80453,113596
10452219,80461,113627
10462219,80463,113633
10473219,80467,113661
10483219,80472,113693
10493219,80470,113700
10503219,80482,113732
10513219,80480,113750
10523219,80489,113772
10533219,80490,113798
10543219,80499,113821
10553219,80496,113828
10563219,80505,113840
10573219,80511,113836
10583219,80521,113836
10593219,80512,113839
10603219,80511,113857
10613219,80514,113853
10623219,80522,113864
10633219,80522,113855
10643219,80513,113862
10653219,80510,113856
10664219,80518,113859
10674219,80511,113855
10684219,80514,113887
10694219,80503,113892
10704219,80508,113890
10714219,80510,113900
10724219,80514,113906
10734219,80521,113916
10744219,80517,113925
10754219,80533,113928
10764219,80532,113935
10774219,80528,113945
10784219,80526,113926
10794219,80524,113942
10804219,80521,113931
10814219,80522,113925
10824219,80517,113897
10834219,80521,113900
10845219,80508,113885
10855219,80497,113877
10865219,80507,113881
10875219,80492,113865
10885219,80490,113859
10895219,80482,113854
10905219,80495,113860
10915219,80491,113875
10925219,80499,113906
10935219,80503,113914
10945219,80507,113925
10955219,80512,113956
10965219,80518,113971
10975219,80515,113965
10985219,80515,113956
10995219,80521,113961
11005219,80515,113954
11015219,80509,113961
11025219,80505,113943
11036219,80507,113933
11046219,80503,113926
11056219,80493,113924
11066219,80491,113931
11076219,80485,113929
11086219,80493,113934
11096219,80501,113949
11106219,80491,113940
11116219,80492,113949
11126219,80505,113966
11136219,80512,113950
11146219,80504,113961
11156219,80500,113952
11166219,80495,113938
11176219,80491,113928
11186219,80487,113892
11196219,80474,113827
11206219,80458,113717
11216219,80412,113543
11227219,80349,113254
11237219,80279,112883
11247219,80181,112536
11257219,80098,112193
11267219,80011,111932
11277219,79942,111733
11287219,79920,111618
11297219,79889,111582
11307219,79884,111562
11317219,79890,111598
11327219,79905,111647
11337219,79927,111678
11347219,79919,111724
11357219,79937,111760
11367219,79942,111802
11377219,79955,111859
11387219,79973,111899
11397219,79970,111930
11407219,79973,111984
11418219,79988,112017
11428219,80001,112050
11438219,80014,112115
11448219,80014,112159
11458219,80024,112208
11468219,80049,112239
11478219,80046,112276
11488219,80061,112304
11498219,80062,112343
11508219,80079,112340
11518219,80072,112330
11528219,80072,112307
11538219,80071,112287
11548219,80059,112241
11558219,80052,112212
11568219,80027,112157
11578219,80023,112150
11588219,80019,112138
11599219,80011,112161
11609219,80026,112210
11619219,80032,112268
11629219,80043,112332
11639219,80068,112383
11649219,80067,112454
11659219,80093,112497
11669219,80108,112575
11679219,80119,112631
11689219,80135,112712
11699219,80165,112788
11709219,80180,112848
11719219,80192,112901
11729219,80210,112970
11739219,80216,112996
11749219,80225,113036
11759219,80230,113070
11769219,80234,113087
11779219,80238,113082
11790219,80226,113044
11800219,80202,112994
11810219,80198,112958
11820219,80176,112878
11830219,80150,112796
11840219,80127,112726
11850219,80115,112686
11860219,80107,112708
11870219,80123,112774
11880219,80141,112848
11890219,80163,112945
11900219,80194,113035
11910219,80214,113094
11920219,80222,113152
11930219,80234,113175
11940219,80237,113208
11950219,80245,113224
11960219,80249,113235
11970219,80243,113255
11981219,80252,113280
11991219,80257,113279
12001219,80254,113283
12011219,80247,113285
12021219,80249,113297
12031219,80259,113309
12041219,80259,113331
12051219,80268,113348
12061219,80269,113372
12071219,80269,113327
12081219,80264,113245
12091219,80242,113098
12101219,80182,112807
12111219,80096,112458
12121219,80015,112139
12131219,79922,111820
12141219,79865,111564
12151219,79791,111343
12161219,79737,111160
12172219,79711,111064
12182219,79674,110977
12192219,79656,110955
12202219,79655,110977
12212219,79662,111006
12222219,79687,111075
12232219,79701,111139
12242219,79716,111220
12252219,79725,111290
12262219,79756,111343
12272219,79765,111386
12282219,79782,111430
12292219,79794,111500
12302219,79819,111581
12312219,79838,111664
12322219,79851,111752
12332219,79870,111850
12342219,79900,111922
12352219,79912,111999
12363219,79932,112059
12373219,79934,112081
12383219,79941,112097
12393219,79953,112133
12403219,79949,112151
12413219,79961,112174
12423219,79980,112203
12433219,79975,112217
12443219,79967,112220
12453219,79982,112225
12463219,79991,112215
12473219,79991,112218
12483219,79990,112230
12493219,79986,112278
12503219,80006,112322
12513219,80014,112377
12523219,80032,112429
12533219,80042,112489
12543219,80041,112508
12554219,80054,112553
12564219,80056,112591
12574219,80062,112626
12584219,80084,112677
12594219,80086,112698
12604219,80092,112726
12614219,80106,112757
12624219,80110,112792
12634219,80122,112821
12644219,80133,112853
12654219,80148,112898
12664219,80154,112941
12674219,80157,112970
12684219,80160,112989
12694219,80169,112996
12704219,80180,113011
12714219,80167,113014
12724219,80170,113037
12734219,80177,113033
12745219,80172,113051
12755219,80168,113054
12765219,80181,113086
12775219,80179,113104
12785219,80174,113116
12795219,80198,113142
12805219,80188,113158
12815219,80194,113166
12825219,80209,113175
12835219,80216,113188
12845219,80211,113195
12855219,80215,113185
12865219,80213,113170
12875219,80194,113139
12885219,80186,113040
12895219,80157,112897
12905219,80115,112600
12915219,80016,112256
12925219,79913,111898
12936219,79843,111581
12946219,79756,111337
12956219,79715,111185
12966219,79676,111099
12976219,79656,111045
12986219,79658,111040
12996219,79661,111051
13006219,79664,111098
13016219,79682,111138
13026219,79706,111206
13036219,79716,111270
13046219,79736,111329
13056219,79756,111405
13066219,79771,111485
13076219,79795,111565
13086219,79815,111665
13096219,79835,111780
13106219,79866,111890
13117219,79891,111991
13127219,79917,112093
13137219,79939,112164
13147219,79956,112237
13157219,79973,112296
13167219,79981,112350
13177219,79993,112391
13187219,80004,112430
13197219,80021,112470
13207219,80025,112482
13217219,80032,112517
13227219,80043,112515
13237219,80045,112536
13247219,80045,112549
13257219,80048,112561
13267219,80045,112558
13277219,80042,112561
13287219,80045,112584
13297219,80047,112603
13308219,80064,112649
13318219,80059,112693
13328219,80073,112747
13338219,80087,112815
13348219,80090,112884
13358219,80110,112952
13368219,80135,113025
13378219,80143,113055
13388219,80145,113083
13398219,80157,113088
13408219,80170,113087
13418219,80161,113083
13428219,80165,113093
13438219,80168,113113
13448219,80168,113137
13458219,80178,113159
13468219,80173,113175
13478219,80169,113165
13488219,80175,113180
13499219,80178,113187
13509219,80185,113201
13519219,80178,113207
13529219,80188,113221
13539219,80192,113224
13549219,80192,113237
13559219,80196,113240
13569219,80191,113264
13579219,80203,113287
13589219,80205,113283
13599219,80204,113294
13609219,80210,113299
13619219,80209,113297
13629219,80200,113304
13639219,80202,113310
13649219,80209,113309
13659219,80207,113329
13669219,80199,113329
13679219,80208,113339
13690219,80210,113344
13700219,80205,113357
13710219,80217,113379
13720219,80211,113383
13730219,80211,113388
13740219,80208,113396
13750219,80213,113405
13760219,80222,113415
13770219,80213,113425
13780219,80235,113443
13790219,80231,113435
13800219,80227,113434
13810219,80220,113393
13820219,80206,113325
13830219,80190,113212
13840219,80141,113017
13850219,80077,112719
13860219,79996,112348
13871219,79911,112054
13881219,79847,111822
13891219,79780,111636
13901219,79735,111537
13911219,79730,111495
13921219,79719,111468
13931219,79720,111501
13941219,79739,111565
13951219,79744,111650
13961219,79773,111743
13971219,79797,111831
13981219,79837,111904
13991219,79849,111977
14001219,79871,112034
14011219,79881,112093
14021219,79900,112157
14031219,79915,112239
14041219,79932,112333
14051219,79949,112417
14062219,79973,112494
14072219,79986,112550
14082219,80000,112597
14092219,80007,112650
14102219,80021,112686
14112219,80036,112729
14122219,80040,112752
14132219,80048,112780
14142219,80050,112824
14152219,80058,112830
14162219,80068,112840
14172219,80071,112859
14182219,80077,112869
14192219,80076,112881
14202219,80072,112895
14212219,80080,112911
14222219,80088,112948
14232219,80085,112988
14242219,80091,113046
14253219,80118,113095
14263219,80122,113127
14273219,80131,113150
14283219,80135,113188
14293219,80136,113197
14303219,80146,113203
14313219,80151,113226
14323219,80147,113237
14333219,80145,113252
14343219,80162,113277
14353219,80167,113287
14363219,80167,113299
14373219,80177,113316
14383219,80180,113319
14393219,80172,113332
14403219,80181,113334
14413219,80176,113342
14423219,80185,113359
14433219,80183,113365
14444219,80181,113358
14454219,80180,113366
14464219,80177,113371
14474219,80186,113378
14484219,80179,113394
14494219,80185,113409
14504219,80191,113419
14514219,80197,113428
14524219,80201,113451
14534219,80202,113462
14544219,80215,113482
14554219,80216,113478
14564219,80214,113495
14574219,80211,113499
14584219,80208,113490
14594219,80222,113507
14604219,80212,113510
14614219,80208,113518
14624219,80220,113539
14635219,80218,113533
14645219,80221,113567
14655219,80222,113553
14665219,80215,113566
14675219,80240,113584
14685219,80234,113586
14695219,80231,113595
14705219,80238,113609
14715219,80246,113623
14725219,80245,113623
14735219,80242,113622
14745219,80245,113621
14755219,80239,113630
14765219,80232,113627
14775219,80237,113624
14785219,80247,113616
14795219,80242,113589
14805219,80214,113528
14815219,80196,113424
14826219,80167,113276
14836219,80114,113059
14846219,80058,112728
14856219,79959,112376
14866219,79875,112096
14876219,79812,111897
14886219,79769,111774
14896219,79758,111746
14906219,79752,111737
14916219,79765,111781
14926219,79777,111823
14936219,79795,111900
14946219,79823,111977
14956219,79834,112047
14966219,79856,112116
14976219,79870,112178
14986219,79891,112251
14996219,79906,112291
15007219,79908,112359
15017219,79932,112434
15027219,79944,112517
15037219,79964,112575
15047219,79981,112632
15057219,79991,112685
15067219,80005,112727
15077219,80012,112771
15087219,80033,112821
15097219,80040,112882
15107219,80057,112904
15117219,80072,112950
15127219,80072,112968
15137219,80084,112993
15147219,80088,113010
15157219,80084,113028
15167219,80083,113022
15177219,80086,113021
15187219,80074,112996
15198219,80078,113004
15208219,80069,113008
15218219,80066,113029
15228219,80084,113048
15238219,80074,113086
15248219,80086,113122
15258219,80107,113167
15268219,80107,113209
15278219,80115,113236
15288219,80118,113255
15298219,80140,113265
15308219,80138,113258
15318219,80134,113289
15328219,80135,113313
15338219,80144,113313
15348219,80156,113333
15358219,80153,113356
15368219,80146,113357
15378219,80163,113372
15389219,80148,113371
15399219,80153,113390
15409219,80150,113391
15419219,80149,113391
15429219,80165,113411
15439219,80156,113423
15449219,80160,113441
15459219,80154,113460
15469219,80172,113482
15479219,80179,113489
15489219,80178,113499
15499219,80190,113519
15509219,80179,113522
15519219,80177,113527
15529219,80183,113548
15539219,80182,113529
15549219,80182,113555
15559219,80183,113558
15570219,80184,113569
15580219,80192,113570
15590219,80188,113575
15600219,80179,113591
15610219,80193,113592
15620219,80189,113609
15630219,80192,113608
15640219,80195,113622
15650219,80192,113640
15660219,80194,113657
15670219,80198,113648
15680219,80210,113652
15690219,80211,113668
15700219,80206,113668
15710219,80213,113668
15720219,80208,113663
15730219,80217,113665
15740219,80210,113680
15750219,80202,113681
15761219,80209,113693
15771219,80205,113671
15781219,80202,113642
15791219,80185,113593
15801219,80157,113464
15811219,80117,113235
15821219,80058,112869
15831219,79935,112474
15841219,79851,112143
15851219,79776,111892
15861219,79737,111791
15871219,79712,111753
15881219,79703,111771
15891219,79715,111811
15901219,79734,111866
15911219,79759,111967
15921219,79775,112066
15931219,79798,112160
15941219,79830,112246
15952219,79846,112321
15962219,79870,112418
15972219,79878,112491
15982219,79891,112585
15992219,79940,112664
16002219,79950,112741
16012219,79966,112798
16022219,79981,112862
16032219,79994,112911
16042219,80019,112961
16052219,80020,113009
16062219,80039,113055
16072219,80044,113105
16082219,80055,113142
16092219,80067,113182
16102219,80076,113198
16112219,80069,113224
16122219,80079,113229
16133219,80073,113222
16143219,80083,113226
16153219,80070,113220
16163219,80071,113235
16173219,80083,113263
16183219,80085,113274
16193219,80086,113300
16203219,80096,113314
16213219,80097,113348
16223219,80107,113364
16233219,80109,113370
16243219,80125,113394
16253219,80127,113407
16263219,80122,113443
16273219,80133,113450
16283219,80136,113466
16293219,80154,113481
16303219,80140,113502
16313219,80137,113505
16324219,80143,113511
16334219,80138,113507
16344219,80149,113519
16354219,80144,113536
16364219,80143,113551
16374219,80154,113566
16384219,80162,113595
16394219,80155,113602
16404219,80151,113615
16414219,80171,113625
16424219,80174,113621
16434219,80170,113637
16444219,80171,113635
16454219,80176,113635
16464219,80183,113633
16474219,80171,113648
16484219,80176,113652
16494219,80175,113664
16504219,80171,113663
16515219,80183,113680
16525219,80185,113677
16535219,80177,113685
16545219,80173,113691
16555219,80179,113699
16565219,80181,113705
16575219,80179,113717
16585219,80177,113731
16595219,80190,113733
16605219,80185,113761
16615219,80206,113758
16625219,80202,113753
16635219,80204,113763
16645219,80203,113759
16655219,80199,113757
16665219,80198,113758
16675219,80199,113763
16685219,80206,113767
16695219,80211,113785
16706219,80200,113787
16716219,80203,113788
16726219,80206,113806
16736219,80201,113802
16746219,80195,113774
16756219,80203,113744
16766219,80186,113656
16776219,80161,113531
16786219,80110,113309
16796219,80049,112939
16806219,79948,112553
16816219,79850,112244
16826219,79792,112067
16836219,79751,111980
16846219,79747,111973
16856219,79743,112015
16866219,79764,112082
16876219,79780,112199
16887219,79805,112310
16897219,79842,112428
16907219,79875,112547
16917219,79889,112642
16927219,79920,112736
16937219,79941,112809
16947219,79963,112896
16957219,79985,112981
16967219,79996,113046
16977219,80016,113118
16987219,80036,113178
16997219,80060,113222
17007219,80062,113253
17017219,80070,113276
17027219,80078,113304
17037219,80086,113325
17047219,80088,113349
17057219,80097,113377
17067219,80089,113395
17078219,80094,113399
17088219,80092,113398
17098219,80091,113399
17108219,80097,113398
17118219,80087,113408
17128219,80085,113404
17138219,80095,113418
17148219,80099,113424
17158219,80110,113451
17168219,80106,113471
17178219,80118,113487
17188219,80119,113494
17198219,80119,113525
17208219,80123,113535
17218219,80124,113551
17228219,80131,113572
17238219,80133,113591
17248219,80132,113611
17258219,80146,113630
17269219,80137,113629
17279219,80127,113632
17289219,80149,113655
17299219,80141,113665
17309219,80138,113664
17319219,80153,113684
17329219,80141,113690
17339219,80150,113710
17349219,80151,113721
17359219,80170,113736
17369219,80166,113743
17379219,80170,113756
17389219,80166,113748
17399219,80170,113762
17409219,80174,113744
17419219,80168,113760
17429219,80156,113750
17439219,80175,113761
17450219,80164,113762
17460219,80171,113779
17470219,80162,113783
17480219,80163,113777
17490219,80170,113801
17500219,80166,113796
17510219,80170,113807
17520219,80170,113817
17530219,80174,113834
17540219,80180,113831
17550219,80185,113847
17560219,80194,113840
17570219,80194,113837
17580219,80182,113860
17590219,80189,113851
17600219,80186,113856
17610219,80196,113871
17620219,80190,113876
17630219,80183,113874
17641219,80191,113892
17651219,80181,113893
17661219,80187,113886
17671219,80188,113912
17681219,80186,113909
17691219,80188,113911
17701219,80195,113926
17711219,80185,113915
17721219,80185,113904
17731219,80181,113865
17741219,80178,113789
17751219,80145,113638
17761219,80092,113426
17771219,80028,113111
17781219,79943,112774
17791219,79875,112504
17801219,79798,112313
17811219,79758,112217
17821219,79745,112180
17832219,79736,112176
17842219,79738,112217
17852219,79765,112316
17862219,79780,112406
17872219,79808,112503
17882219,79848,112613
17892219,79856,112701
17902219,79882,112786
17912219,79913,112839
17922219,79929,112909
17932219,79939,112970
17942219,79957,113022
17952219,79973,113059
17962219,79981,113100
17972219,79993,113152
17982219,79999,113165
17992219,80001,113188
18002219,80005,113218
18013219,80006,113238
18023219,80010,113253
18033219,80020,113257
18043219,80014,113268
18053219,80022,113274
18063219,80017,113269
18073219,80015,113271
18083219,80021,113268
18093219,80022,113284
18103219,80024,113277
18113219,80019,113253
18123219,80022,113253
18133219,80023,113252
18143219,80023,113273
18153219,80021,113279
18163219,80029,113307
18173219,80035,113355
18183219,80047,113388
18193219,80046,113411
18204219,80048,113446
18214219,80059,113470
18224219,80060,113481
18234219,80071,113516
18244219,80071,113550
18254219,80074,113568
18264219,80086,113607
18274219,80098,113642
18284219,80100,113685
18294219,80108,113705
18304219,80125,113716
18314219,80134,113734
18324219,80127,113745
18334219,80128,113742
18344219,80127,113752
18354219,80143,113764
18364219,80134,113770
18374219,80133,113799
18384219,80144,113812
18395219,80138,113813
18405219,80142,113804
18415219,80146,113821
18425219,80138,113822
18435219,80137,113829
18445219,80161,113830
18455219,80148,113842
18465219,80150,113859
18475219,80159,113881
18485219,80165,113880
18495219,80166,113889
18505219,80163,113897
18515219,80165,113904
18525219,80172,113917
18535219,80176,113911
18545219,80173,113920
18555219,80169,113904
18565219,80169,113933
18576219,80166,113923
18586219,80168,113941
18596219,80161,113940
18606219,80170,113948
18616219,80173,113945
18626219,80160,113899
18636219,80144,113823
18646219,80118,113693
18656219,80080,113485
18666219,80019,113186
18676219,79944,112895
18686219,79884,112677
18696219,79832,112522
18706219,79792,112434
18716219,79778,112389
18726219,79779,112399
18736219,79775,112444
18746219,79794,112495
18756219,79802,112555
18767219,79828,112642
18777219,79838,112728
18787219,79869,112819
18797219,79892,112914
18807219,79906,113016
18817219,79937,113088
18827219,79952,113161
18837219,79973,113224
18847219,79985,113288
18857219,80004,113343
18867219,80008,113375
18877219,80036,113408
18887219,80034,113443
18897219,80049,113465
18907219,80048,113490
18917219,80050,113491
18927219,80047,113500
18937219,80042,113496
18947219,80051,113481
18958219,80042,113456
18968219,80037,113445
18978219,80036,113437
18988219,80029,113420
18998219,80027,113424
19008219,80034,113432
19018219,80026,113443
19028219,80027,113479
19038219,80051,113503
19048219,80057,113532
19058219,80060,113547
19068219,80066,113563
19078219,80070,113592
19088219,80076,113621
19098219,80079,113635
19108219,80091,113653
19118219,80081,113674
19128219,80094,113706
19139219,80096,113724
19149219,80099,113753
19159219,80101,113755
19169219,80104,113782
19179219,80118,113800
19189219,80108,113805
19199219,80114,113826
19209219,80123,113836
19219219,80112,113861
19229219,80132,113867
19239219,80130,113887
19249219,80141,113888
19259219,80146,113898
19269219,80138,113911
19279219,80138,113911
19289219,80140,113916
19299219,80152,113928
19309219,80145,113927
19319219,80136,113939
19330219,80142,113925
19340219,80129,113931
19350219,80144,113930
19360219,80137,113950
19370219,80132,113952
19380219,80130,113950
19390219,80132,113943
19400219,80133,113908
19410219,80114,113845
19420219,80101,113704
19430219,80059,113476
19440219,79998,113173
19450219,79913,112882
19460219,79839,112625
19470219,79781,112442
19480219,79745,112342
19490219,79729,112278
19500219,79709,112276
19510219,79714,112304
19521219,79718,112325
19531219,79732,112371
19541219,79742,112459
19551219,79751,112547
19561219,79792,112633
19571219,79812,112724
19581219,79823,112795
19591219,79852,112849
19601219,79859,112912
19611219,79877,112964
19621219,79894,113034
19631219,79916,113097
19641219,79929,113168
19651219,79936,113223
19661219,79953,113273
19671219,79972,113327
19681219,79990,113348
19691219,79975,113379
19702219,79985,113382
19712219,79986,113383
19722219,79982,113362
19732219,79973,113348
19742219,79968,113336
19752219,79971,113331
19762219,79967,113334
19772219,79975,113356
19782219,79962,113388
19792219,79980,113414
19802219,79990,113441
19812219,80002,113477
19822219,80011,113512
19832219,80015,113547
19842219,80026,113580
19852219,80029,113598
19862219,80044,113612
19872219,80035,113645
19882219,80035,113656
19893219,80047,113671
19903219,80045,113697
19913219,80054,113721
19923219,80051,113757
19933219,80052,113771
19943219,80062,113789
19953219,80073,113792
19963219,80072,113824
19973219,80079,113832
19983219,80087,113845
19993219,80092,113865
20003219,80096,113880
20013219,80095,113897
20023219,80102,113912
20033219,80098,113909
20043219,80110,113920
20053219,80105,113924
20063219,80100,113920
20073219,80107,113927
20084219,80104,113924
20094219,80098,113942
20104219,80108,113963
20114219,80108,113953
20124219,80100,113927
20134219,80101,113874
20144219,80071,113775
20154219,80041,113583
20164219,79974,113291
20174219,79906,112985
20184219,79830,112702
20194219,79754,112473
20204219,79713,112327
20214219,79678,112236
20224219,79662,112190
20234219,79655,112179
20244219,79655,112199
20254219,79666,112238
20265219,79678,112280
20275219,79684,112335
20285219,79702,112405
20295219,79717,112460
20305219,79725,112503
20315219,79739,112543
20325219,79749,112565
20335219,79759,112590
20345219,79768,112627
20355219,79770,112685
20365219,79793,112736
20375219,79805,112828
20385219,79832,112895
20395219,79852,112965
20405219,79867,113014
20415219,79878,113039
20425219,79876,113052
20435219,79891,113074
20445219,79878,113047
20456219,79867,113046
20466219,79879,113038
20476219,79873,113017
20486219,79867,113025
20496219,79867,113025
20506219,79874,113034
20516219,79876,113040
20526219,79871,113071
20536219,79879,113093
20546219,79888,113122
20556219,79890,113141
20566219,79907,113178
20576219,79917,113211
20586219,79922,113237
20596219,79926,113262
20606219,79940,113267
20616219,79944,113313
20626219,79942,113342
20636219,79945,113361
20647219,79959,113387
20657219,79953,113408
20667219,79955,113433
20677219,79966,113468
20687219,79974,113490
20697219,79987,113512
20707219,79986,113533
20717219,79993,113567
20727219,79999,113586
20737219,80006,113602
20747219,80013,113628
20757219,80023,113635
20767219,80035,113671
20777219,80024,113682
20787219,80027,113698
20797219,80039,113706
20807219,80028,113713
20817219,80043,113725
20828219,80031,113743
20838219,80032,113752
20848219,80051,113783
20858219,80046,113790
20868219,80048,113803
20878219,80053,113811
20888219,80050,113811
20898219,80048,113815
20908219,80059,113833
20918219,80063,113827
20928219,80065,113820
20938219,80064,113819
20948219,80067,113786
20958219,80045,113690
20968219,80011,113513
20978219,79941,113192
20988219,79859,112818
20998219,79764,112478
21008219,79681,112196
21019219,79618,112019
21029219,79573,111905
21039219,79556,111839
21049219,79543,111799
21059219,79530,111793
21069219,79527,111797
21079219,79539,111823
21089219,79548,111892
21099219,79566,111923
21109219,79571,111992
21119219,79610,112038
21129219,79607,112074
21139219,79624,112124
21149219,79625,112157
21159219,79641,112188
21169219,79654,112245
21179219,79663,112286
21189219,79665,112356
21199219,79689,112412
21210219,79701,112466
21220219,79715,112509
21230219,79727,112589
21240219,79728,112627
21250219,79757,112676
21260219,79764,112700
21270219,79764,112730
21280219,79777,112735
21290219,79775,112719
21300219,79770,112719
21310219,79763,112701
21320219,79768,112679
21330219,79764,112683
21340219,79764,112701
21350219,79766,112701
21360219,79774,112739
21370219,79778,112772
21380219,79779,112798
21390219,79788,112816
21401219,79783,112811
21411219,79791,112820
21421219,79793,112852
21431219,79781,112854
21441219,79790,112875
21451219,79801,112906
21461219,79803,112943
21471219,79814,112972
21481219,79816,112997
21491219,79843,113005
21501219,79836,113025
21511219,79833,113039
21521219,79844,113037
21531219,79844,113042
21541219,79842,113052
21551219,79852,113084
21561219,79845,113109
21571219,79856,113160
21582219,79859,113170
21592219,79862,113206
21602219,79877,113222
21612219,79872,113224
21622219,79874,113233
21632219,79875,113241
21642219,79880,113249
21652219,79875,113264
21662219,79893,113278
21672219,79885,113308
21682219,79901,113332
21692219,79905,113355
21702219,79912,113377
21712219,79910,113387
21722219,79916,113403
21732219,79913,113398
21742219,79916,113430
21752219,79927,113440
21762219,79924,113481
21773219,79942,113504
21783219,79940,113549
21793219,79940,113559
21803219,79961,113585
21813219,79944,113605
21823219,79962,113615
21833219,79960,113633
21843219,79968,113641
21853219,79975,113672
21863219,79978,113684
21873219,79978,113711
21883219,79999,113724
21893219,79997,113739
21903219,79999,113756
21913219,80001,113769
21923219,80007,113767
21933219,80001,113774
21943219,79995,113743
21953219,79996,113724
21964219,79977,113625
21974219,79933,113439
21984219,79883,113137
21994219,79782,112756
22004219,79691,112377
22014219,79604,112053
22024219,79528,111822
22034219,79480,111679
22044219,79453,111566
22054219,79439,111493
22064219,79422,111440
22074219,79417,111438
22084219,79415,111423
22094219,79418,111441
22104219,79427,111464
22114219,79430,111468
22124219,79430,111477
22134219,79434,111513
22145219,79442,111538
22155219,79446,111593
22165219,79471,111656
22175219,79472,111695
22185219,79490,111747
22195219,79500,111824
22205219,79520,111878
22215219,79529,111947
22225219,79553,112021
22235219,79577,112093
22245219,79596,112152
22255219,79606,112199
22265219,79624,112235
22275219,79629,112265
22285219,79624,112286
22295219,79632,112272
22305219,79629,112294
22315219,79642,112326
22325219,79638,112343
22336219,79638,112359
22346219,79650,112370
22356219,79641,112370
22366219,79649,112385
22376219,79648,112407
22386219,79655,112429
22396219,79669,112474
22406219,79680,112519
22416219,79683,112591
22426219,79707,112643
22436219,79721,112704
22446219,79742,112776
22456219,79761,112855
22466219,79763,112932
22476219,79787,112967
22486219,79804,113010
22496219,79823,113072
22506219,79821,113093
22516219,79827,113140
22527219,79841,113188
22537219,79846,113214
22547219,79863,113241
22557219,79858,113263
22567219,79859,113256
22577219,79863,113260
22587219,79860,113262
22597219,79863,113249
22607219,79855,113234
22617219,79860,113223
22627219,79857,113225
22637219,79854,113247
22647219,79867,113283
22657219,79867,113312
22667219,79870,113333
22677219,79884,113360
22687219,79880,113362
22697219,79894,113391
22708219,79891,113392
22718219,79884,113427
22728219,79899,113433
22738219,79894,113453
22748219,79895,113472
22758219,79904,113478
22768219,79908,113494
22778219,79916,113512
22788219,79924,113548
22798219,79919,113560
22808219,79926,113584
22818219,79936,113609
22828219,79949,113633
22838219,79950,113649
22848219,79958,113673
22858219,79958,113683
22868219,79957,113702
22878219,79965,113696
22888219,79958,113704
22899219,79961,113705
22909219,79964,113717
22919219,79959,113713
22929219,79958,113718
22939219,79950,113732
22949219,79950,113726
22959219,79946,113707
22969219,79943,113648
22979219,79916,113502
22989219,79869,113207
22999219,79784,112759
23009219,79661,112307
23019219,79547,111946
23029219,79469,111700
23039219,79413,111566
23049219,79390,111473
23059219,79369,111419
23069219,79350,111401
23079219,79363,111404
23090219,79357,111408
23100219,79372,111422
23110219,79363,111467
23120219,79366,111492
23130219,79389,111538
23140219,79396,111591
23150219,79409,111639
23160219,79416,111676
23170219,79432,111704
23180219,79435,111728
23190219,79435,111756
23200219,79452,111796
23210219,79453,111844
23220219,79461,111911
23230219,79482,111965
23240219,79489,111994
23250219,79502,112023
23260219,79500,112039
23270219,79503,112035
23281219,79504,112035
23291219,79493,112006
23301219,79494,111993
23311219,79485,111992
23321219,79485,111992
23331219,79495,111986
23341219,79486,111974
23351219,79478,111978
23361219,79483,111987
23371219,79487,112003
23381219,79503,112039
23391219,79506,112089
23401219,79528,112156
23411219,79531,112215
23421219,79551,112288
23431219,79572,112341
23441219,79577,112368
23451219,79588,112414
23462219,79597,112452
23472219,79602,112502
23482219,79618,112564
23492219,79630,112609
23502219,79628,112663
23512219,79652,112725
23522219,79674,112761
23532219,79691,112816
23542219,79703,112857
23552219,79701,112878
23562219,79716,112875
23572219,79701,112870
23582219,79709,112849
23592219,79712,112819
23602219,79689,112810
23612219,79689,112815
23622219,79691,112801
23632219,79703,112823
23642219,79680,112810
23653219,79680,112812
23663219,79678,112814
23673219,79682,112832
23683219,79687,112853
23693219,79683,112849
23703219,79688,112865
23713219,79687,112857
23723219,79684,112863
23733219,79686,112874
23743219,79690,112868
23753219,79693,112880
23763219,79700,112855
23773219,79696,112858
23783219,79697,112856
23793219,79689,112836
23803219,79692,112846
23813219,79694,112853
23823219,79686,112854
23833219,79690,112866
23844219,79690,112864
23854219,79689,112878
23864219,79701,112889
23874219,79693,112914
23884219,79700,112927
23894219,79706,112923
23904219,79703,112871
23914219,79671,112702
23924219,79616,112438
23934219,79547,112068
23944219,79440,111668
23954219,79352,111389
23964219,79297,111189
23974219,79241,111052
23984219,79221,110929
23994219,79192,110852
24004219,79186,110818
24014219,79160,110784
24024219,79162,110778
24035219,79153,110789
24045219,79166,110831
24055219,79177,110864
24065219,79169,110912
24075219,79188,110926
24085219,79205,110940
24095219,79197,110967
24105219,79201,110989
24115219,79208,111006
24125219,79223,111028
24135219,79220,111062
24145219,79229,111103
24155219,79243,111131
24165219,79249,111184
24175219,79264,111201
24185219,79264,111240
24195219,79270,111276
24205219,79283,111312
24215219,79291,111360
24226219,79303,111411
24236219,79309,111413
24246219,79316,111429
24256219,79316,111435
24266219,79310,111413
24276219,79309,111396
24286219,79314,111400
24296219,79308,111433
24306219,79318,111455
24316219,79331,111493
24326219,79345,111543
24336219,79359,111578
24346219,79374,111624
24356219,79380,111677
24366219,79390,111708
24376219,79394,111734
24386219,79399,111772
24396219,79413,111821
24407219,79418,111868
24417219,79423,111923
24427219,79439,111993
24437219,79461,112057
24447219,79476,112120
24457219,79490,112168
24467219,79507,112203
24477219,79524,112225
24487219,79512,112246
24497219,79523,112242
24507219,79531,112268
24517219,79530,112279
24527219,79536,112310
24537219,79536,112344
24547219,79541,112373
24557219,79543,112399
24567219,79568,112429
24577219,79570,112471
24587219,79569,112473
24598219,79574,112482
24608219,79568,112480
24618219,79575,112471
24628219,79568,112491
24638219,79570,112500
24648219,79580,112529
24658219,79587,112562
24668219,79586,112601
24678219,79585,112622
24688219,79601,112644
24698219,79627,112674
24708219,79620,112680
24718219,79627,112701
24728219,79620,112712
24738219,79628,112725
24748219,79631,112736
24758219,79628,112746
24768219,79620,112766
24778219,79641,112785
24789219,79642,112801
24799219,79642,112825
24809219,79642,112836
24819219,79639,112844
24829219,79651,112847
24839219,79650,112866
24849219,79648,112864
24859219,79649,112823
24869219,79633,112747
24879219,79600,112544
24889219,79533,112267
24899219,79466,111907
24909219,79368,111552
24919219,79272,111261
24929219,79216,111056
24939219,79171,110891
24949219,79146,110786
24959219,79103,110701
24969219,79083,110670
24980219,79078,110654
24990219,79073,110662
25000219,79082,110691
25010219,79087,110751
25020219,79101,110810
25030219,79121,110858
25040219,79122,110897
25050219,79136,110927
25060219,79144,110948
25070219,79167,110975
25080219,79170,111001
25090219,79173,111045
25100219,79190,111115
25110219,79194,111148
25120219,79205,111194
25130219,79214,111223
25140219,79218,111247
25150219,79224,111272
25161219,79223,111297
25171219,79231,111310
25181219,79239,111343
25191219,79231,111334
25201219,79224,111345
25211219,79236,111348
25221219,79243,111340
25231219,79234,111357
25241219,79243,111347
25251219,79243,111355
25261219,79243,111358
25271219,79246,111381
25281219,79245,111403
25291219,79250,111435
25301219,79255,111477
25311219,79257,111511
25321219,79267,111539
25331219,79287,111603
25341219,79285,111636
25352219,79311,111701
25362219,79313,111751
25372219,79323,111810
25382219,79336,111847
25392219,79347,111897
25402219,79349,111920
25412219,79361,111953
25422219,79361,111984
25432219,79371,112012
25442219,79378,112032
25452219,79386,112057
25462219,79403,112078
25472219,79399,112092
25482219,79401,112110
25492219,79398,112109
25502219,79405,112109
25512219,79407,112120
25522219,79401,112127
25532219,79404,112151
25543219,79402,112144
25553219,79406,112135
25563219,79404,112174
25573219,79405,112200
25583219,79416,112240
25593219,79436,112276
25603219,79437,112298
25613219,79440,112316
25623219,79456,112350
25633219,79466,112388
25643219,79471,112417
25653219,79481,112414
25663219,79482,112454
25673219,79476,112475
25683219,79495,112519
25693219,79501,112549
25703219,79502,112560
25713219,79500,112547
25723219,79495,112470
25734219,79465,112266
25744219,79392,111955
25754219,79312,111592
25764219,79205,111231
25774219,79127,110996
25784219,79083,110845
25794219,79045,110737
25804219,79021,110688
25814219,79008,110636
25824219,79002,110608
25834219,78995,110609
25844219,79004,110632
25854219,79007,110668
25864219,79015,110706
25874219,79033,110731
25884219,79040,110764
25894219,79042,110780
25904219,79046,110804
25915219,79041,110824
25925219,79040,110851
25935219,79055,110894
25945219,79065,110946
25955219,79080,110997
25965219,79091,111078
25975219,79120,111173
25985219,79139,111257
25995219,79147,111325
26005219,79168,111387
26015219,79189,111415
26025219,79196,111443
26035219,79203,111464
26045219,79196,111463
26055219,79195,111444
26065219,79190,111409
26075219,79191,111375
26085219,79160,111354
26095219,79150,111341
26106219,79159,111337
26116219,79152,111342
26126219,79159,111356
26136219,79164,111406
26146219,79158,111442
26156219,79179,111480
26166219,79198,111532
26176219,79198,111587
26186219,79217,111646
26196219,79235,111696
26206219,79257,111753
26216219,79261,111802
26226219,79270,111851
26236219,79285,111882
26246219,79286,111891
26256219,79297,111925
26266219,79290,111937
26276219,79289,111949
26286219,79306,111970
26297219,79298,111966
26307219,79302,111979
26317219,79301,111981
26327219,79303,111991
26337219,79297,111972
26347219,79307,111978
26357219,79298,111970
26367219,79292,111961
26377219,79300,111961
26387219,79303,111979
26397219,79306,111994
26407219,79308,112018
26417219,79314,112047
26427219,79323,112086
26437219,79338,112126
26447219,79345,112178
26457219,79348,112211
26467219,79361,112252
26478219,79366,112276
26488219,79371,112311
26498219,79380,112295
26508219,79363,112194
26518219,79327,111984
26528219,79271,111700
26538219,79197,111371
26548219,79104,111099
26558219,79040,110901
26568219,79009,110762
26578219,78985,110623
26588219,78955,110530
26598219,78931,110449
26608219,78913,110390
26618219,78899,110340
26628219,78885,110331
26638219,78883,110328
26648219,78886,110348
26658219,78885,110367
26669219,78893,110388
26679219,78896,110418
26689219,78899,110421
26699219,78903,110434
26709219,78900,110436
26719219,78906,110467
26729219,78906,110495
26739219,78912,110526
26749219,78927,110587
26759219,78940,110636
26769219,78952,110679
26779219,78966,110725
26789219,78973,110777
26799219,78989,110815
26809219,78998,110857
26819219,79006,110878
26829219,79005,110905
26839219,79007,110912
26849219,79016,110913
26860219,79011,110905
26870219,79005,110892
26880219,79007,110905
26890219,78996,110912
26900219,79011,110936
26910219,79019,110979
26920219,79028,111022
26930219,79043,111097
26940219,79043,111155
26950219,79085,111221
26960219,79088,111257
26970219,79096,111295
26980219,79107,111332
26990219,79110,111368
27000219,79134,111426
27010219,79132,111487
27020219,79147,111553
27030219,79172,111618
27041219,79176,111666
27051219,79190,111721
27061219,79198,111757
27071219,79204,111794
27081219,79222,111828
27091219,79221,111877
27101219,79241,111913
27111219,79246,111955
27121219,79251,111991
27131219,79264,112036
27141219,79272,112065
27151219,79287,112098
27161219,79291,112125
27171219,79292,112176
27181219,79308,112209
27191219,79316,112238
27201219,79331,112268
27211219,79328,112279
27221219,79326,112292
27232219,79334,112312
27242219,79330,112324
27252219,79335,112338
27262219,79341,112379
27272219,79344,112412
27282219,79346,112427
27292219,79360,112417
27302219,79347,112356
27312219,79324,112192
27322219,79262,111872
27332219,79178,111501
27342219,79083,111113
27352219,78981,110818
27362219,78924,110633
27372219,78888,110502
27382219,78863,110413
27392219,78845,110349
27402219,78825,110300
27412219,78821,110275
27423219,78802,110252
27433219,78802,110241
27443219,78804,110272
27453219,78805,110300
27463219,78817,110331
27473219,78825,110372
27483219,78837,110428
27493219,78847,110473
27503219,78864,110505
27513219,78875,110550
27523219,78880,110575
27533219,78897,110622
27543219,78897,110665
27553219,78920,110722
27563219,78931,110795
27573219,78942,110854
27583219,78957,110923
27593219,78971,110991
27604219,78984,111021
27614219,78993,111054
27624219,78993,111069
27634219,79003,111064
27644219,78991,111048
27654219,78982,111015
27664219,78983,110992
27674219,78981,110990
27684219,78972,110996
27694219,78984,111025
27704219,78990,111052
27714219,79002,111086
27724219,79004,111115
27734219,79023,111163
27744219,79017,111210
27754219,79043,111239
27764219,79048,111294
27774219,79048,111322
27784219,79066,111360
27795219,79070,111404
27805219,79078,111437
27815219,79095,111489
27825219,79095,111552
27835219,79111,111604
27845219,79120,111629
27855219,79134,111674
27865219,79147,111712
27875219,79154,111731
27885219,79156,111770
27895219,79164,111788
27905219,79176,111829
27915219,79184,111850
27925219,79195,111882
27935219,79199,111907
27945219,79200,111935
27955219,79203,111948
27965219,79213,111980
27975219,79210,112005
27986219,79216,112032
27996219,79233,112066
28006219,79229,112073
28016219,79242,112086
28026219,79239,112118
28036219,79250,112136
28046219,79251,112160
28056219,79260,112190
28066219,79263,112227
28076219,79273,112257
28086219,79289,112275
28096219,79295,112284
28106219,79293,112300
28116219,79288,112315
28126219,79302,112339
28136219,79310,112351
28146219,79322,112378
28156219,79304,112385
28166219,79312,112403
28177219,79323,112417
28187219,79320,112423
28197219,79325,112429
28207219,79326,112448
28217219,79319,112454
28227219,79329,112452
28237219,79331,112436
28247219,79318,112354
28257219,79286,112145
28267219,79217,111826
28277219,79146,111450
28287219,79038,111043
28297219,78948,110720
28307219,78868,110490
28317219,78831,110354
28327219,78803,110260
28337219,78775,110183
28347219,78767,110142
28358219,78752,110108
28368219,78743,110090
28378219,78746,110095
28388219,78739,110131
28398219,78749,110167
28408219,78769,110203
28418219,78775,110236
28428219,78794,110269
28438219,78789,110281
28448219,78795,110300
28458219,78805,110319
28468219,78820,110341
28478219,78827,110400
28488219,78831,110458
28498219,78849,110520
28508219,78865,110586
28518219,78880,110648
28528219,78892,110678
28538219,78899,110703
28549219,78896,110692
28559219,78901,110696
28569219,78887,110702
28579219,78889,110700
28589219,78891,110714
28599219,78892,110716
28609219,78896,110726
28619219,78897,110748
28629219,78903,110756
28639219,78905,110758
28649219,78911,110770
28659219,78918,110783
28669219,78922,110828
28679219,78913,110869
28689219,78942,110950
28699219,78953,110997
28709219,78983,111055
28719219,78982,111121
28729219,78994,111171
28740219,79013,111228
28750219,79014,111270
28760219,79034,111309
28770219,79035,111358
28780219,79047,111379
28790219,79048,111421
28800219,79064,111449
28810219,79063,111502
28820219,79088,111535
28830219,79100,111581
28840219,79114,111629
28850219,79117,111645
28860219,79135,111684
28870219,79125,111692
28880219,79130,111710
28890219,79138,111728
28900219,79141,111740
28910219,79140,111763
28921219,79135,111771
28931219,79139,111789
28941219,79142,111820
28951219,79164,111868
28961219,79152,111896
28971219,79173,111927
28981219,79176,111954
28991219,79196,111964
29001219,79193,111976
29011219,79196,111994
29021219,79200,112001
29031219,79206,112028
29041219,79210,112055
29051219,79217,112076
29061219,79224,112094
29071219,79228,112132
29081219,79236,112145
29091219,79235,112169
29101219,79231,112176
29112219,79241,112188
29122219,79231,112208
29132219,79228,112228
29142219,79251,112252
29152219,79255,112283
29162219,79256,112307
29172219,79263,112331
29182219,79271,112347
29192219,79270,112375
29202219,79272,112373
29212219,79287,112376
29222219,79292,112375
29232219,79279,112342
29242219,79276,112244
29252219,79232,112034
29262219,79169,111712
29272219,79078,111336
29282219,78973,110933
29292219,78887,110611
29303219,78811,110382
29313219,78764,110209
29323219,78741,110111
29333219,78701,110021
29343219,78682,109965
29353219,78680,109942
29363219,78677,109952
29373219,78681,109992
29383219,78686,110015
29393219,78709,110042
29403219,78712,110070
29413219,78711,110082
29423219,78721,110110
29433219,78721,110123
29443219,78733,110142
29453219,78741,110174
29463219,78743,110216
29473219,78750,110247
29484219,78756,110292
29494219,78774,110341
29504219,78777,110404
29514219,78787,110437
29524219,78804,110485
29534219,78802,110526
29544219,78817,110558
29554219,78817,110583
29564219,78824,110596
29574219,78836,110612
29584219,78834,110607
29594219,78845,110602
29604219,78845,110579
29614219,78827,110572
29624219,78829,110557
29634219,78813,110553
29644219,78829,110571
29654219,78823,110592
29664219,78826,110628
29675219,78838,110693
29685219,78844,110722
29695219,78860,110779
29705219,78876,110835
29715219,78873,110884
29725219,78892,110920
29735219,78905,110958
29745219,78913,110999
29755219,78920,111044
29765219,78941,111086
29775219,78957,111145
29785219,78966,111191
29795219,78979,111247
29805219,78982,111306
29815219,79002,111352
29825219,79019,111384
29835219,79022,111425
29845219,79027,111455
29855219,79039,111488
29866219,79041,111508
29876219,79052,111561
29886219,79046,111562
29896219,79059,111588
29906219,79066,111607
29916219,79067,111626
29926219,79082,111655
29936219,79082,111692
29946219,79095,111723
29956219,79101,111757
29966219,79108,111766
29976219,79121,111800
29986219,79115,111822
29996219,79131,111838
30006219,79133,111862
30016219,79134,111866
30026219,79132,111890
30036219,79135,111910
30046219,79144,111935
30057219,79142,111963
30067219,79148,111984
30077219,79153,112033
30087219,79165,112066
30097219,79169,112085
30107219,79192,112114
30117219,79183,112133
30127219,79189,112160
30137219,79201,112181
30147219,79214,112209
30157219,79210,112222
30167219,79230,112249
30177219,79225,112271
30187219,79231,112293
30197219,79234,112310
30207219,79236,112296
30217219,79236,112303
30227219,79234,112302
30238219,79229,112273
30248219,79222,112186
30258219,79183,111995
30268219,79124,111682
30278219,79036,111304
30288219,78936,110878
30298219,78843,110528
30308219,78761,110290
30318219,78719,110167
30328219,78693,110062
30338219,78678,109991
30348219,78673,109942
30358219,78665,109944
30368219,78667,109950
30378219,78662,109965
30388219,78675,109976
30398219,78679,109999
30408219,78679,110016
30418219,78681,110029
30429219,78684,110043
30439219,78690,110064
30449219,78701,110094
30459219,78703,110136
30469219,78692,110159
30479219,78711,110195
30489219,78721,110229
30499219,78731,110289
30509219,78747,110347
30519219,78765,110436
30529219,78786,110535
30539219,78819,110646
30549219,78847,110759
30559219,78874,110822
30569219,78893,110869
30579219,78893,110850
30589219,78883,110803
30599219,78866,110747
30609219,78844,110680
30620219,78834,110639
30630219,78821,110626
30640219,78818,110633
30650219,78827,110662
30660219,78824,110716
30670219,78836,110759
30680219,78860,110797
30690219,78867,110848
30700219,78872,110917
30710219,78900,110964
30720219,78916,111012
30730219,78920,111040
30740219,78931,111087
30750219,78939,111120
30760219,78954,111146
30770219,78956,111193
30780219,78962,111231
30790219,78981,111284
30800219,78980,111353
30811219,78995,111399
30821219,79015,111458
30831219,79014,111482
30841219,79023,111499
30851219,79031,111530
30861219,79037,111534
30871219,79039,111570
30881219,79045,111609
30891219,79057,111657
30901219,79068,111699
30911219,79074,111716
30921219,79100,111735
30931219,79093,111758
30941219,79100,111769
30951219,79097,111784
30961219,79105,111816
30971219,79111,111833
30981219,79107,111848
30991219,79125,111876
31002219,79118,111899
31012219,79118,111919
31022219,79129,111928
31032219,79122,111977
31042219,79138,111993
31052219,79149,112020
31062219,79150,112062
31072219,79158,112084
31082219,79158,112102
31092219,79182,112136
31102219,79183,112147
31112219,79191,112167
31122219,79187,112183
31132219,79195,112203
31142219,79197,112236
31152219,79194,112243
31162219,79200,112255
31172219,79197,112269
31182219,79198,112272
31193219,79213,112291
31203219,79205,112286
31213219,79212,112294
31223219,79193,112264
31233219,79184,112147
31243219,79143,111930
31253219,79083,111567
31263219,78976,111129
31273219,78877,110725
31283219,78795,110440
31293219,78727,110254
31303219,78697,110139
31313219,78673,110053
31323219,78652,110002
31333219,78639,109968
31343219,78642,109954
31353219,78638,109960
31363219,78640,109972
31374219,78637,109990
31384219,78650,110018
31394219,78655,110058
31404219,78665,110121
31414219,78683,110160
31424219,78685,110204
31434219,78700,110245
31444219,78712,110274
31454219,78715,110303
31464219,78730,110342
31474219,78733,110360
31484219,78748,110390
31494219,78755,110421
31504219,78752,110467
31514219,78765,110516
31524219,78777,110559
31534219,78793,110606
31544219,78795,110636
31554219,78785,110641
31565219,78799,110648
31575219,78801,110639
31585219,78801,110622
31595219,78790,110614
31605219,78768,110602
31615219,78787,110616
31625219,78787,110635
31635219,78795,110662
31645219,78799,110696
31655219,78806,110740
31665219,78824,110776
31675219,78827,110820
31685219,78842,110857
31695219,78857,110888
31705219,78861,110938
31715219,78868,110947
31725219,78872,111004
31735219,78888,111045
31745219,78886,111087
31756219,78901,111131
31766219,78911,111180
31776219,78917,111237
31786219,78935,111285
31796219,78944,111322
31806219,78949,111342
31816219,78969,111391
31826219,78970,111429
31836219,78973,111463
31846219,78994,111501
31856219,79008,111531
31866219,79015,111562
31876219,79027,111606
31886219,79020,111622
31896219,79034,111648
31906219,79033,111674
31916219,79038,111673
31926219,79046,111679
31936219,79033,111700
31947219,79036,111715
31957219,79054,111750
31967219,79051,111769
31977219,79060,111805
31987219,79064,111839
31997219,79077,111892
32007219,79091,111923
32017219,79103,111945
32027219,79110,111975
32037219,79113,112001
32047219,79114,112032
32057219,79135,112055
32067219,79129,112079
32077219,79138,112106
32087219,79149,112139
32097219,79159,112170
32107219,79165,112202
32117219,79167,112221
32127219,79178,112229
32138219,79176,112250
32148219,79165,112265
32158219,79176,112271
32168219,79175,112294
32178219,79178,112311
32188219,79190,112340
32198219,79186,112329
32208219,79180,112273
32218219,79172,112139
32228219,79119,111869
32238219,79041,111484
32248219,78949,111093
32258219,78858,110734
32268219,78763,110490
32278219,78718,110323
32288219,78689,110209
32298219,78678,110145
32308219,78652,110105
32318219,78641,110088
32329219,78653,110089
32339219,78643,110084
32349219,78650,110127
32359219,78649,110153
32369219,78664,110183
32379219,78671,110219
32389219,78680,110261
32399219,78693,110335
32409219,78701,110385
32419219,78725,110426
32429219,78739,110483
32439219,78737,110516
32449219,78754,110561
32459219,78760,110593
32469219,78773,110636
32479219,78776,110651
32489219,78779,110672
32499219,78793,110720
32510219,78791,110745
32520219,78803,110773
32530219,78803,110783
32540219,78804,110786
32550219,78806,110784
32560219,78802,110793
32570219,78801,110793
32580219,78807,110792
32590219,78809,110802
32600219,78811,110826
32610219,78811,110828
32620219,78827,110864
32630219,78835,110909
32640219,78823,110931
32650219,78835,110967
32660219,78845,110988
32670219,78867,111029
32680219,78856,111069
32690219,78858,111102
32701219,78878,111153
32711219,78881,111198
32721219,78892,111233
32731219,78902,111314
32741219,78899,111360
32751219,78934,111411
32761219,78939,111459
32771219,78957,111508
32781219,78961,111533
32791219,78974,111574
32801219,78984,111611
32811219,78991,111643
32821219,78999,111684
32831219,79005,111736
32841219,79015,111776
32851219,79030,111813
32861219,79037,111852
32871219,79052,111880
32881219,79051,111917
32892219,79055,111932
32902219,79061,111960
32912219,79061,111969
32922219,79069,111984
32932219,79076,112013
32942219,79073,112047
32952219,79082,112085
32962219,79092,112099
32972219,79109,112143
32982219,79105,112156
32992219,79123,112165
33002219,79114,112166
33012219,79110,112191
33022219,79125,112216
33032219,79127,112227
33042219,79139,112248
33052219,79137,112298
33062219,79137,112313
33072219,79153,112358
33083219,79152,112377
33093219,79164,112387
33103219,79156,112411
33113219,79154,112428
33123219,79171,112436
33133219,79169,112458
33143219,79170,112470
33153219,79173,112472
33163219,79176,112460
33173219,79164,112376
33183219,79142,112239
33193219,79106,111973
33203219,79020,111630
33213219,78936,111264
33223219,78854,110956
33233219,78776,110684
33243219,78729,110541
33253219,78683,110425
33263219,78663,110358
33274219,78651,110324
33284219,78648,110322
33294219,78654,110347
33304219,78655,110380
33314219,78670,110424
33324219,78693,110481
33334219,78696,110551
33344219,78724,110633
33354219,78742,110685
33364219,78762,110732
33374219,78771,110769
33384219,78779,110794
33394219,78782,110829
33404219,78781,110848
33414219,78800,110877
33424219,78806,110930
33434219,78808,110979
33444219,78824,111056
33455219,78839,111111
33465219,78857,111165
33475219,78862,111177
33485219,78863,111182
33495219,78862,111180
33505219,78859,111155
33515219,78858,111132
33525219,78850,111105
33535219,78843,111106
33545219,78842,111106
33555219,78846,111106
33565219,78866,111133
33575219,78863,111178
33585219,78879,111236
33595219,78874,111288
33605219,78888,111359
33615219,78912,111433
33625219,78923,111500
33635219,78945,111564
33646219,78958,111616
33656219,78962,111663
33666219,78981,111708
33676219,78981,111748
33686219,78990,111763
33696219,78993,111795
33706219,79013,111809
33716219,79003,111841
33726219,79013,111861
33736219,79018,111896
33746219,79032,111929
33756219,79045,111956
33766219,79055,112006
33776219,79053,112025
33786219,79060,112065
33796219,79066,112063
33806219,79079,112087
33816219,79077,112100
33826219,79069,112104
33837219,79073,112106
33847219,79075,112127
33857219,79076,112145
33867219,79078,112158
33877219,79077,112175
33887219,79080,112185
33897219,79100,112199
33907219,79094,112218
33917219,79089,112234
33927219,79103,112236
33937219,79110,112249
33947219,79108,112252
33957219,79114,112228
33967219,79098,112160
33977219,79078,112010
33987219,79026,111765
33997219,78951,111443
34007219,78873,111108
34017219,78787,110816
34028219,78721,110585
34038219,78681,110443
34048219,78641,110321
34058219,78619,110252
34068219,78604,110197
34078219,78590,110165
34088219,78597,110176
34098219,78598,110202
34108219,78607,110257
34118219,78621,110270
34128219,78631,110292
34138219,78642,110280
34148219,78630,110259
34158219,78619,110241
34168219,78611,110219
34178219,78609,110216
34188219,78615,110253
34198219,78612,110280
34208219,78631,110340
34219219,78640,110379
34229219,78643,110405
34239219,78651,110438
34249219,78653,110464
34259219,78665,110461
34269219,78677,110456
34279219,78659,110453
34289219,78644,110444
34299219,78660,110437
34309219,78666,110434
34319219,78661,110425
34329219,78669,110429
34339219,78654,110447
34349219,78664,110439
34359219,78664,110435
34369219,78660,110434
34379219,78656,110429
34389219,78651,110462
34400219,78658,110484
34410219,78670,110538
34420219,78675,110592
34430219,78686,110653
34440219,78708,110714
34450219,78712,110760
34460219,78723,110804
34470219,78738,110844
34480219,78742,110904
34490219,78761,110960
34500219,78779,111001
34510219,78789,111043
34520219,78801,111055
34530219,78799,111078
34540219,78800,111096
34550219,78804,111094
34560219,78813,111104
34570219,78809,111131
34580219,78811,111164
34591219,78822,111203
34601219,78817,111222
34611219,78839,111248
34621219,78838,111279
34631219,78836,111285
34641219,78838,111277
34651219,78850,111276
34661219,78843,111296
34671219,78841,111285
34681219,78843,111237
34691219,78824,111119
34701219,78784,110903
34711219,78727,110650
34721219,78656,110383
34731219,78592,110135
34741219,78545,109951
34751219,78499,109806
34761219,78457,109680
34771219,78434,109589
34782219,78405,109500
34792219,78387,109430
34802219,78371,109385
34812219,78356,109369
34822219,78361,109339
34832219,78355,109345
34842219,78347,109380
34852219,78354,109391
34862219,78373,109409
34872219,78374,109422
34882219,78374,109418
34892219,78377,109413
34902219,78379,109425
34912219,78372,109428
34922219,78382,109457
34932219,78381,109490
34942219,78391,109533
34952219,78408,109574
34963219,78401,109638
34973219,78420,109680
34983219,78435,109730
34993219,78433,109746
35003219,78446,109732
35013219,78440,109727
35023219,78434,109717
35033219,78430,109691
35043219,78431,109685
35053219,78428,109712
35063219,78432,109724
35073219,78439,109732
35083219,78451,109747
35093219,78456,109762
35103219,78452,109780
35113219,78462,109810
35123219,78463,109822
35133219,78469,109869
35143219,78472,109895
35154219,78480,109941
35164219,78491,109991
35174219,78497,110036
35184219,78514,110076
35194219,78522,110121
35204219,78531,110154
35214219,78536,110192
35224219,78541,110224
35234219,78566,110254
35244219,78564,110283
35254219,78579,110301
35264219,78584,110311
35274219,78578,110340
35284219,78594,110383
35294219,78602,110410
35304219,78612,110434
35314219,78618,110475
35324219,78616,110483
35334219,78624,110513
35345219,78624,110526
35355219,78625,110546
35365219,78634,110575
35375219,78641,110604
35385219,78637,110604
35395219,78660,110588
35405219,78637,110511
35415219,78610,110333
35425219,78554,110068
35435219,78488,109792
35445219,78426,109564
35455219,78373,109389
35465219,78339,109249
35475219,78304,109120
35485219,78276,109024
35495219,78249,108955
35505219,78234,108885
35515219,78224,108844
35526219,78207,108799
35536219,78209,108789
35546219,78197,108771
35556219,78190,108757
35566219,78196,108756
35576219,78180,108752
35586219,78191,108749
35596219,78189,108755
35606219,78191,108778
35616219,78205,108810
35626219,78206,108842
35636219,78226,108896
35646219,78245,108958
35656219,78251,109007
35666219,78268,109079
35676219,78279,109110
35686219,78302,109138
35696219,78293,109180
35706219,78293,109197
35717219,78313,109208
35727219,78308,109190
35737219,78292,109152
35747219,78288,109111
35757219,78272,109068
35767219,78260,109041
35777219,78268,109026
35787219,78253,109031
35797219,78257,109068
35807219,78272,109098
35817219,78292,109137
35827219,78295,109183
35837219,78307,109236
35847219,78326,109292
35857219,78333,109319
35867219,78354,109376
35877219,78351,109418
35887219,78363,109465
35897219,78378,109514
35908219,78384,109545
35918219,78394,109584
35928219,78399,109620
35938219,78403,109659
35948219,78413,109687
35958219,78431,109716
35968219,78432,109749
35978219,78446,109797
35988219,78455,109826
35998219,78469,109862
36008219,78474,109882
36018219,78480,109913
36028219,78489,109953
36038219,78505,109975
36048219,78507,109991
36058219,78513,110019
36068219,78519,110052
36078219,78523,110076
36089219,78526,110098
36099219,78525,110129
36109219,78533,110175
36119219,78545,110204
36129219,78567,110251
36139219,78572,110330
36149219,78596,110398
36159219,78602,110458
36169219,78622,110501
36179219,78636,110553
36189219,78655,110577
36199219,78667,110608
36209219,78672,110619
36219219,78669,110659
36229219,78674,110674
36239219,78681,110698
36249219,78697,110723
36259219,78690,110756
36269219,78686,110768
36280219,78708,110803
36290219,78705,110806
36300219,78716,110836
36310219,78717,110873
36320219,78716,110902
36330219,78743,110928
36340219,78750,110968
36350219,78751,111019
36360219,78763,111052
36370219,78779,111052
36380219,78780,111064
36390219,78773,111059
36400219,78779,111079
36410219,78787,111092
36420219,78778,111070
36430219,78777,111014
36440219,78748,110855
36450219,78707,110592
36460219,78622,110261
36471219,78525,109878
36481219,78447,109577
36491219,78368,109345
36501219,78325,109177
36511219,78288,109046
36521219,78252,108937
36531219,78232,108855
36541219,78213,108794
36551219,78198,108758
36561219,78193,108734
36571219,78199,108702
36581219,78196,108685
36591219,78183,108667
36601219,78183,108659
36611219,78174,108641
36621219,78167,108615
36631219,78155,108624
36641219,78168,108607
36651219,78164,108615
36662219,78159,108638
36672219,78169,108680
36682219,78189,108715
36692219,78187,108757
36702219,78196,108787
36712219,78205,108815
36722219,78217,108835
36732219,78216,108863
36742219,78220,108868
36752219,78238,108870
36762219,78232,108882
36772219,78233,108877
36782219,78231,108886
36792219,78238,108857
36802219,78227,108846
36812219,78224,108838
36822219,78206,108824
36832219,78215,108835
36843219,78212,108849
36853219,78227,108888
36863219,78229,108915
36873219,78235,108957
36883219,78246,108988
36893219,78246,109023
36903219,78264,109050
36913219,78276,109100
36923219,78278,109147
36933219,78281,109206
36943219,78305,109258
36953219,78330,109292
36963219,78328,109330
36973219,78348,109363
36983219,78336,109386
36993219,78354,109394
37003219,78369,109430
37013219,78364,109442
37023219,78361,109482
37034219,78370,109493
37044219,78378,109513
37054219,78387,109539
37064219,78382,109585
37074219,78383,109605
37084219,78395,109630
37094219,78406,109659
37104219,78414,109685
37114219,78419,109718
37124219,78423,109749
37134219,78434,109765
37144219,78444,109792
37154219,78447,109810
37164219,78460,109824
37174219,78460,109831
37184219,78463,109848
37194219,78465,109863
37204219,78469,109881
37214219,78464,109915
37225219,78470,109941
37235219,78481,109980
37245219,78485,110001
37255219,78495,110034
37265219,78499,110072
37275219,78511,110106
37285219,78517,110135
37295219,78522,110153
37305219,78529,110183
37315219,78535,110202
37325219,78548,110227
37335219,78557,110251
37345219,78561,110293
37355219,78572,110330
37365219,78581,110375
37375219,78589,110384
37385219,78596,110417
37395219,78597,110436
37405219,78607,110448
37416219,78601,110460
37426219,78604,110470
37436219,78615,110504
37446219,78616,110501
37456219,78601,110456
37466219,78592,110333
37476219,78548,110091
37486219,78478,109785
37496219,78398,109470
37506219,78335,109219
37516219,78279,109025
37526219,78232,108876
37536219,78202,108756
37546219,78170,108654
37556219,78138,108572
37566219,78129,108521
37576219,78118,108461
37586219,78108,108435
37597219,78095,108412
37607219,78095,108387
37617219,78089,108374
37627219,78078,108385
37637219,78076,108379
37647219,78085,108381
37657219,78083,108406
37667219,78091,108401
37677219,78092,108415
37687219,78094,108429
37697219,78100,108448
37707219,78091,108474
37717219,78110,108504
37727219,78124,108531
37737219,78126,108544
37747219,78130,108583
37757219,78133,108596
37767219,78143,108626
37777219,78132,108637
37788219,78138,108643
37798219,78145,108656
37808219,78138,108652
37818219,78139,108644
37828219,78139,108645
37838219,78140,108646
37848219,78141,108657
37858219,78140,108658
37868219,78143,108693
37878219,78144,108688
37888219,78154,108721
37898219,78164,108743
37908219,78166,108775
37918219,78177,108819
37928219,78187,108866
37938219,78204,108888
37948219,78217,108928
37958219,78200,108954
37968219,78201,108977
37979219,78222,109005
37989219,78216,109033
37999219,78228,109065
38009219,78229,109097
38019219,78242,109134
38029219,78257,109172
38039219,78263,109201
38049219,78262,109250
38059219,78277,109302
38069219,78293,109323
38079219,78314,109362
38089219,78312,109379
38099219,78325,109396
38109219,78317,109431
38119219,78336,109453
38129219,78335,109492
38139219,78331,109505
38149219,78338,109527
38160219,78351,109546
38170219,78352,109566
38180219,78360,109577
38190219,78358,109593
38200219,78356,109632
38210219,78368,109655
38220219,78384,109675
38230219,78383,109713
38240219,78388,109749
38250219,78403,109789
38260219,78423,109831
38270219,78424,109865
38280219,78439,109910
38290219,78442,109946
38300219,78459,109961
38310219,78464,109993
38320219,78466,110026
38330219,78470,110057
38340219,78484,110073
38351219,78483,110108
38361219,78482,110129
38371219,78500,110158
38381219,78500,110191
38391219,78503,110207
38401219,78521,110226
38411219,78522,110279
38421219,78531,110322
38431219,78535,110338
38441219,78559,110366
38451219,78558,110385
38461219,78563,110406
38471219,78574,110451
38481219,78571,110458
38491219,78579,110444
38501219,78568,110356
38511219,78533,110119
38521219,78465,109791
38532219,78377,109470
38542219,78295,109204
38552219,78243,108998
38562219,78190,108850
38572219,78143,108705
38582219,78125,108605
38592219,78100,108524
38602219,78087,108443
38612219,78062,108383
38622219,78054,108335
38632219,78052,108311
38642219,78038,108285
38652219,78040,108293
38662219,78027,108295
38672219,78035,108292
38682219,78043,108284
38692219,78033,108276
38702219,78021,108265
38712219,78033,108260
38723219,78021,108246
38733219,78020,108267
38743219,78016,108303
38753219,78022,108362
38763219,78034,108414
38773219,78067,108464
38783219,78070,108508
38793219,78077,108543
38803219,78079,108567
38813219,78102,108566
38823219,78102,108577
38833219,78097,108572
38843219,78102,108576
38853219,78096,108579
38863219,78095,108567
38873219,78094,108585
38883219,78089,108567
38893219,78098,108567
38904219,78090,108572
38914219,78091,108583
38924219,78097,108636
38934219,78105,108651
38944219,78117,108693
38954219,78122,108731
38964219,78132,108784
38974219,78137,108840
38984219,78159,108900
38994219,78168,108956
39004219,78194,109020
39014219,78213,109082
39024219,78224,109150
39034219,78242,109198
39044219,78260,109235
39054219,78265,109268
39064219,78267,109294
39074219,78269,109328
39084219,78275,109354
39095219,78277,109368
39105219,78280,109411
39115219,78286,109429
39125219,78302,109467
39135219,78306,109494
39145219,78311,109539
39155219,78331,109570
39165219,78334,109610
39175219,78342,109649
39185219,78347,109653
39195219,78348,109707
39205219,78373,109723
39215219,78375,109752
39225219,78392,109793
39235219,78388,109823
39245219,78406,109832
39255219,78407,109864
39265219,78397,109873
39275219,78403,109894
39286219,78422,109935
39296219,78424,109973
39306219,78439,110026
39316219,78446,110091
39326219,78457,110127
39336219,78472,110153
39346219,78479,110171
39356219,78481,110190
39366219,78482,110203
39376219,78498,110235
39386219,78508,110275
39396219,78514,110313
39406219,78524,110362
39416219,78538,110433
39426219,78549,110461
39436219,78575,110488
39446219,78564,110509
39456219,78563,110512
39467219,78574,110518
39477219,78560,110531
39487219,78568,110550
39497219,78567,110576
39507219,78572,110587
39517219,78572,110530
39527219,78559,110331
39537219,78485,109995
39547219,78385,109568
39557219,78285,109202
39567219,78217,108957
39577219,78156,108761
39587219,78123,108629
39597219,78085,108520
39607219,78063,108442
39617219,78043,108385
39627219,78032,108358
39637219,78034,108316
39647219,78022,108313
39658219,78021,108292
39668219,78022,108286
39678219,78009,108303
39688219,78022,108314
39698219,78020,108340
39708219,78030,108372
39718219,78040,108409
39728219,78048,108433
39738219,78055,108452
39748219,78058,108480
39758219,78066,108497
39768219,78085,108547
39778219,78096,108587
39788219,78101,108634
39798219,78110,108699
39808219,78128,108720
39818219,78144,108766
39828219,78135,108816
39838219,78145,108828
39849219,78160,108853
39859219,78144,108844
39869219,78154,108843
39879219,78152,108841
39889219,78145,108838
39899219,78150,108839
39909219,78156,108860
39919219,78156,108889
39929219,78170,108921
39939219,78169,108954
39949219,78201,109005
39959219,78198,109035
39969219,78216,109067
39979219,78210,109097
39989219,78226,109116
39999219,78236,109167
40009219,78238,109212
40019219,78248,109275
40030219,78265,109349
40040219,78283,109398
40050219,78298,109449
40060219,78311,109480
40070219,78307,109509
40080219,78329,109528
40090219,78333,109550
40100219,78333,109576
40110219,78336,109604
40120219,78349,109642
40130219,78362,109688
40140219,78378,109742
40150219,78394,109781
40160219,78395,109836
40170219,78415,109855
40180219,78415,109884
40190219,78422,109898
40200219,78427,109915
40210219,78424,109938
40221219,78429,109975
40231219,78434,109993
40241219,78440,110040
40251219,78452,110081
40261219,78460,110113
40271219,78475,110162
40281219,78480,110201
40291219,78499,110227
40301219,78506,110271
40311219,78515,110313
40321219,78529,110341
40331219,78542,110388
40341219,78548,110429
40351219,78566,110472
40361219,78570,110517
40371219,78584,110549
40381219,78594,110568
40391219,78594,110609
40402219,78610,110641
40412219,78620,110699
40422219,78627,110732
40432219,78624,110777
40442219,78650,110824
40452219,78646,110864
40462219,78667,110905
40472219,78685,110943
40482219,78689,110974
40492219,78698,110976
40502219,78687,110899
40512219,78665,110668
40522219,78596,110331
40532219,78485,109871
40542219,78366,109435
40552219,78277,109138
40562219,78227,108964
40572219,78173,108810
40582219,78143,108697
40593219,78129,108619
40603219,78105,108557
40613219,78100,108529
40623219,78087,108540
40633219,78084,108554
40643219,78105,108591
40653219,78111,108635
40663219,78122,108675
40673219,78131,108720
40683219,78142,108760
40693219,78157,108782
40703219,78161,108813
40713219,78173,108827
40723219,78176,108852
40733219,78183,108881
40743219,78184,108921
40753219,78194,108947
40763219,78202,108986
40773219,78213,109021
40784219,78218,109054
40794219,78225,109088
40804219,78226,109099
40814219,78235,109123
40824219,78235,109148
40834219,78237,109163
40844219,78247,109184
40854219,78256,109200
40864219,78257,109228
40874219,78257,109229
40884219,78273,109242
40894219,78268,109250
40904219,78269,109267
40914219,78277,109285
40924219,78279,109311
40934219,78290,109338
40944219,78293,109405
40954219,78293,109450
40964219,78316,109521
40975219,78336,109584
40985219,78356,109654
40995219,78365,109746
41005219,78381,109810
41015219,78402,109867
41025219,78419,109920
41035219,78422,109950
41045219,78444,110006
41055219,78449,110046
41065219,78470,110094
41075219,78479,110143
41085219,78496,110195
41095219,78507,110245
41105219,78512,110290
41115219,78526,110329
41125219,78529,110353
41135219,78541,110383
41145219,78536,110420
41155219,78553,110439
41166219,78557,110487
41176219,78564,110528
41186219,78570,110552
41196219,78585,110598
41206219,78585,110619
41216219,78604,110654
41226219,78611,110684
41236219,78616,110708
41246219,78613,110739
41256219,78627,110766
41266219,78642,110778
41276219,78645,110815
41286219,78656,110861
41296219,78660,110893
41306219,78670,110921
41316219,78688,110938
41326219,78676,110924
41336219,78663,110789
41347219,78625,110555
41357219,78539,110194
41367219,78452,109770
41377219,78343,109436
41387219,78268,109216
41397219,78236,109057
41407219,78196,108941
41417219,78167,108878
41427219,78140,108811
41437219,78148,108765
41447219,78143,108743
41457219,78136,108746
41467219,78141,108767
41477219,78156,108794
41487219,78156,108827
41497219,78167,108882
41507219,78174,108927
41517219,78194,108992
41527219,78194,109008
41538219,78200,109034
41548219,78219,109062
41558219,78223,109110
41568219,78234,109165
41578219,78233,109212
41588219,78255,109283
41598219,78280,109344
41608219,78288,109398
41618219,78297,109450
41628219,78326,109484
41638219,78323,109504
41648219,78338,109499
41658219,78323,109509
41668219,78337,109503
41678219,78324,109479
41688219,78321,109455
41698219,78321,109452
41708219,78304,109448
41718219,78294,109454
41729219,78322,109466
41739219,78314,109488
41749219,78325,109515
41759219,78329,109562
41769219,78333,109608
41779219,78355,109656
41789219,78362,109718
41799219,78372,109781
41809219,78390,109839
41819219,78409,109886
41829219,78428,109928
41839219,78434,109964
41849219,78437,110009
41859219,78449,110047
41869219,78464,110088
41879219,78474,110124
41889219,78479,110174
41899219,78483,110210
41910219,78505,110257
41920219,78507,110301
41930219,78522,110348
41940219,78536,110378
41950219,78530,110410
41960219,78547,110416
41970219,78551,110426
41980219,78550,110446
41990219,78546,110463
42000219,78553,110492
42010219,78574,110531
42020219,78579,110581
42030219,78597,110643
42040219,78601,110691
42050219,78618,110689
42060219,78617,110642
42070219,78587,110463
42080219,78530,110165
42090219,78443,109801
42101219,78350,109458
42111219,78281,109197
42121219,78209,109029
42131219,78183,108895
42141219,78145,108793
42151219,78126,108724
42161219,78115,108679
42171219,78106,108643
42181219,78113,108665
42191219,78114,108677
42201219,78114,108701
42211219,78133,108728
42221219,78146,108757
42231219,78147,108792
42241219,78150,108834
42251219,78164,108845
42261219,78171,108884
42271219,78170,108915
42281219,78181,108961
42292219,78198,109015
42302219,78204,109071
42312219,78219,109129
42322219,78232,109176
42332219,78242,109219
42342219,78255,109262
42352219,78269,109300
42362219,78270,109337
42372219,78283,109358
42382219,78286,109363
42392219,78297,109361
42402219,78290,109337
42412219,78291,109304
42422219,78270,109287
42432219,78271,109266
42442219,78272,109279
42452219,78268,109310
42462219,78271,109349
42473219,78301,109414
42483219,78308,109444
42493219,78316,109481
42503219,78314,109530
42513219,78325,109559
42523219,78329,109591
42533219,78346,109615
42543219,78357,109680
42553219,78366,109735
42563219,78381,109814
42573219,78403,109879
42583219,78413,109911
42593219,78434,109945
42603219,78442,109969
42613219,78440,109977
42623219,78449,110012
42633219,78454,110019
42643219,78456,110061
42653219,78459,110097
42664219,78475,110154
42674219,78485,110223
42684219,78503,110291
42694219,78524,110368
42704219,78526,110425
42714219,78543,110450
42724219,78546,110479
42734219,78559,110482
42744219,78558,110512
42754219,78564,110476
42764219,78557,110347
42774219,78505,110108
42784219,78431,109789
42794219,78350,109437
42804219,78268,109143
42814219,78208,108935
42824219,78153,108783
42834219,78123,108652
42844219,78100,108567
42855219,78066,108485
42865219,78060,108429
42875219,78048,108399
42885219,78036,108404
42895219,78042,108419
42905219,78045,108438
42915219,78048,108475
42925219,78062,108499
42935219,78068,108508
42945219,78077,108512
42955219,78073,108522
42965219,78089,108540
42975219,78087,108572
42985219,78089,108607
42995219,78099,108666
43005219,78113,108709
43015219,78139,108763
43025219,78140,108842
43035219,78148,108881
43046219,78169,108918
43056219,78169,108939
43066219,78175,108950
43076219,78181,108964
43086219,78174,108964
43096219,78184,108957
43106219,78178,108955
43116219,78169,108986
43126219,78183,109010
43136219,78187,109023
43146219,78198,109037
43156219,78202,109054
43166219,78211,109074
43176219,78208,109108
43186219,78216,109125
43196219,78224,109181
43206219,78239,109234
43216219,78248,109295
43227219,78264,109365
43237219,78281,109428
43247219,78296,109460
43257219,78300,109535
43267219,78309,109576
43277219,78325,109617
43287219,78342,109663
43297219,78358,109704
43307219,78367,109742
43317219,78374,109778
43327219,78382,109811
43337219,78389,109819
43347219,78400,109847
43357219,78408,109890
43367219,78408,109917
43377219,78418,109959
43387219,78424,109978
43397219,78442,110008
43407219,78431,110021
43418219,78440,110041
43428219,78441,110067
43438219,78444,110078
43448219,78455,110102
43458219,78442,110115
43468219,78442,110105
43478219,78445,110023
43488219,78412,109837
43498219,78354,109568
43508219,78276,109231
43518219,78207,108946
43528219,78138,108722
43538219,78079,108542
43548219,78045,108402
43558219,78007,108268
43568219,77985,108162
43578219,77951,108088
43588219,77924,108023
43598219,77922,107978
43609219,77905,107934
43619219,77906,107922
43629219,77897,107915
43639219,77888,107912
43649219,77901,107904
43659219,77896,107901
43669219,77903,107909
43679219,77901,107912
43689219,77899,107929
43699219,77914,107957
43709219,77921,108007
43719219,77951,108078
43729219,77950,108129
43739219,77969,108185
43749219,77984,108244
43759219,77997,108279
43769219,78012,108325
43779219,78014,108348
43789219,78020,108373
43800219,78021,108367
43810219,78020,108357
43820219,78012,108345
43830219,78012,108342
43840219,78026,108334
43850219,78017,108334
43860219,78015,108361
43870219,78026,108373
43880219,78032,108403
43890219,78040,108447
43900219,78049,108473
43910219,78067,108513
43920219,78078,108555
43930219,78074,108586
43940219,78082,108620
43950219,78099,108654
43960219,78109,108691
43970219,78111,108738
43980219,78113,108770
43991219,78121,108808
44001219,78130,108833
44011219,78148,108881
44021219,78154,108941
44031219,78160,108991
44041219,78178,109055
44051219,78199,109100
44061219,78210,109131
44071219,78204,109125
44081219,78221,109130
44091219,78216,109125
44101219,78216,109135
44111219,78217,109158
44121219,78223,109174
44131219,78239,109197
44141219,78235,109213
44151219,78234,109223
44161219,78244,109235
44172219,78238,109232
44182219,78248,109221
44192219,78239,109224
44202219,78229,109223
44212219,78226,109226
44222219,78230,109241
44232219,78237,109207
44242219,78218,109101
44252219,78176,108903
44262219,78121,108667
44272219,78057,108415
44282219,78004,108188
44292219,77950,107976
44302219,77899,107781
44312219,77836,107589
44322219,77796,107419
44332219,77752,107278
44342219,77711,107142
44352219,77682,107019
44363219,77648,106937
44373219,77621,106843
44383219,77607,106754
44393219,77584,106718
44403219,77567,106670
44413219,77555,106622
44423219,77550,106603
44433219,77542,106585
44443219,77549,106574
44453219,77549,106568
44463219,77552,106586
44473219,77552,106603
44483219,77563,106626
44493219,77560,106643
44503219,77565,106656
44513219,77564,106640
44523219,77570,106643
44533219,77558,106646
44543219,77556,106640
44554219,77560,106646
44564219,77545,106645
44574219,77555,106646
44584219,77546,106653
44594219,77537,106655
44604219,77562,106656
44614219,77552,106636
44624219,77546,106656
44634219,77547,106650
44644219,77545,106644
44654219,77545,106647
44664219,77550,106671
44674219,77555,106694
44684219,77556,106701
44694219,77566,106730
44704219,77568,106746
44714219,77567,106741
44724219,77570,106763
44734219,77568,106759
44745219,77568,106778
44755219,77568,106779
44765219,77563,106798
44775219,77564,106821
44785219,77566,106848
44795219,77570,106869
44805219,77592,106892
44815219,77591,106934
44825219,77599,106968
44835219,77605,106989
44845219,77626,107003
44855219,77625,107027
44865219,77627,107056
44875219,77630,107071
44885219,77633,107099
44895219,77647,107138
44905219,77649,107170
44915219,77651,107209
44925219,77670,107224
44936219,77668,107253
44946219,77667,107268
44956219,77673,107308
44966219,77683,107343
44976219,77686,107365
44986219,77704,107381
44996219,77692,107426
45006219,77701,107471
45016219,77732,107501
45026219,77739,107559
45036219,77747,107588
45046219,77758,107611
45056219,77756,107629
45066219,77768,107647
45076219,77776,107686
45086219,77778,107712
45096219,77777,107744
45106219,77796,107796
45117219,77799,107825
45127219,77818,107857
45137219,77812,107908
45147219,77821,107907
45157219,77831,107927
45167219,77824,107929
45177219,77823,107946
45187219,77835,107968
45197219,77836,107998
45207219,77843,108033
45217219,77858,108054
45227219,77861,108026
45237219,77839,107904
45247219,77796,107717
45257219,77740,107484
45267219,77681,107229
45277219,77629,106997
45287219,77559,106788
45297219,77500,106567
45308219,77458,106390
45318219,77404,106216
45328219,77374,106070
45338219,77322,105953
45348219,77302,105858
45358219,77279,105774
45368219,77277,105725
45378219,77250,105671
45388219,77238,105643
45398219,77243,105606
45408219,77237,105578
45418219,77230,105545
45428219,77226,105537
45438219,77223,105546
45448219,77229,105550
45458219,77237,105563
45468219,77242,105587
45478219,77244,105603
45488219,77258,105639
45499219,77256,105644
45509219,77266,105650
45519219,77261,105678
45529219,77260,105693
45539219,77278,105724
45549219,77286,105766
45559219,77296,105781
45569219,77308,105804
45579219,77314,105807
45589219,77320,105822
45599219,77320,105823
45609219,77335,105838
45619219,77336,105848
45629219,77335,105864
45639219,77350,105885
45649219,77356,105912
45659219,77378,105951
45669219,77371,105998
45680219,77388,106039
45690219,77408,106084
45700219,77423,106141
45710219,77436,106205
45720219,77461,106263
45730219,77468,106312
45740219,77494,106371
45750219,77511,106415
45760219,77518,106454
45770219,77537,106508
45780219,77556,106552
45790219,77572,106603
45800219,77584,106647
45810219,77594,106706
45820219,77610,106762
45830219,77631,106789
45840219,77647,106831
45850219,77644,106857
45860219,77653,106890
45871219,77668,106928
45881219,77678,106951
45891219,77684,107003
45901219,77697,107063
45911219,77710,107116
45921219,77728,107164
45931219,77753,107207
45941219,77764,107259
45951219,77773,107309
45961219,77798,107343
45971219,77812,107395
45981219,77814,107432
45991219,77836,107489
46001219,77849,107561
46011219,77862,107624
46021219,77887,107688
46031219,77899,107739
46041219,77914,107764
46051219,77927,107798
46062219,77926,107816
46072219,77944,107839
46082219,77946,107889
46092219,77952,107929
46102219,77962,107954
46112219,77979,107993
46122219,77982,108028
46132219,77999,108062
46142219,78004,108089
46152219,78007,108122
46162219,78015,108144
46172219,78027,108185
46182219,78035,108229
46192219,78049,108280
46202219,78060,108345
46212219,78082,108388
46222219,78090,108435
46232219,78096,108460
46242219,78101,108356
46253219,78056,108120
46263219,77981,107769
46273219,77895,107467
46283219,77817,107229
46293219,77765,107022
46303219,77722,106858
46313219,77687,106707
46323219,77649,106600
46333219,77618,106493
46343219,77614,106414
46353219,77590,106367
46363219,77579,106329
46373219,77580,106306
46383219,77576,106303
46393219,77581,106309
46403219,77578,106334
46413219,77585,106340
46423219,77596,106367
46434219,77593,106371
46444219,77601,106371
46454219,77602,106391
46464219,77602,106414
46474219,77615,106443
46484219,77617,106485
46494219,77631,106536
46504219,77646,106578
46514219,77659,106629
46524219,77674,106662
46534219,77686,106675
46544219,77699,106685
46554219,77705,106711
46564219,77696,106699
46574219,77699,106698
46584219,77708,106713
46594219,77713,106711
46604219,77701,106724
46614219,77697,106730
46625219,77716,106733
46635219,77704,106741
46645219,77709,106749
46655219,77709,106775
46665219,77711,106799
46675219,77731,106831
46685219,77736,106881
46695219,77743,106930
46705219,77757,106977
46715219,77781,107031
46725219,77795,107074
46735219,77812,107115
46745219,77820,107160
46755219,77836,107202
46765219,77837,107233
46775219,77850,107262
46785219,77853,107278
46795219,77860,107317
46805219,77864,107348
46816219,77877,107372
46826219,77879,107419
46836219,77883,107465
46846219,77897,107524
46856219,77907,107576
46866219,77925,107624
46876219,77947,107663
46886219,77953,107720
46896219,77972,107778
46906219,77986,107817
46916219,78008,107853
46926219,78014,107878
46936219,78021,107915
46946219,78019,107943
46956219,78034,107968
46966219,78042,107996
46976219,78043,108041
46986219,78052,108087
46996219,78070,108141
47007219,78078,108190
47017219,78098,108250
47027219,78106,108332
47037219,78128,108379
47047219,78143,108439
47057219,78158,108495
47067219,78165,108533
47077219,78173,108584
47087219,78191,108645
47097219,78214,108721
47107219,78235,108779
47117219,78255,108854
47127219,78261,108913
47137219,78281,108980
47147219,78297,109026
47157219,78320,109068
47167219,78320,109115
47177219,78324,109115
47187219,78326,109067
47198219,78296,108874
47208219,78235,108559
47218219,78144,108160
47228219,78028,107807
47238219,77965,107548
47248219,77903,107359
47258219,77864,107214
47268219,77835,107092
47278219,77808,107014
47288219,77797,106962
47298219,77783,106923
47308219,77793,106921
47318219,77783,106915
47328219,77793,106957
47338219,77804,106994
47348219,77822,107039
47358219,77827,107108
47368219,77849,107159
47378219,77874,107227
47389219,77879,107277
47399219,77901,107326
47409219,77912,107406
47419219,77926,107483
47429219,77955,107550
47439219,77975,107641
47449219,77996,107724
47459219,78016,107795
47469219,78033,107856
47479219,78055,107918
47489219,78073,107971
47499219,78095,108037
47509219,78106,108065
47519219,78121,108106
47529219,78117,108142
47539219,78134,108162
47549219,78139,108192
47559219,78146,108219
47569219,78160,108270
47580219,78168,108312
47590219,78185,108355
47600219,78201,108411
47610219,78197,108479
47620219,78219,108534
47630219,78249,108590
47640219,78262,108683
47650219,78276,108759
47660219,78314,108834
47670219,78336,108919
47680219,78351,108988
47690219,78380,109066
47700219,78393,109165
47710219,78414,109245
47720219,78444,109341
47730219,78470,109414
47740219,78502,109479
47750219,78503,109547
47760219,78514,109582
47771219,78534,109649
47781219,78550,109711
47791219,78574,109790
47801219,78584,109873
47811219,78602,109962
47821219,78638,110052
47831219,78656,110134
47841219,78671,110197
47851219,78692,110258
47861219,78723,110309
47871219,78735,110356
47881219,78745,110384
47891219,78756,110442
47901219,78763,110496
47911219,78775,110541
47921219,78798,110607
47931219,78808,110639
47941219,78824,110680
47952219,78835,110745
47962219,78850,110768
47972219,78876,110831
47982219,78877,110854
47992219,78890,110874
48002219,78892,110901
48012219,78904,110938
48022219,78917,110976
48032219,78931,111011
48042219,78946,111064
48052219,78965,111092
48062219,78978,111139
48072219,78995,111167
48082219,78997,111188
48092219,79008,111209
48102219,79014,111227
48112219,79022,111226
48122219,79015,111198
48132219,78987,111094
48143219,78970,110943
48153219,78916,110678
48163219,78835,110275
48173219,78734,109896
48183219,78644,109607
48193219,78599,109396
48203219,78567,109286
48213219,78545,109259
48223219,78536,109278
48233219,78560,109311
48243219,78586,109376
48253219,78596,109460
48263219,78629,109572
48273219,78648,109698
48283219,78689,109816
48293219,78716,109928
48303219,78737,110016
48313219,78761,110069
48323219,78767,110128
48334219,78778,110157
48344219,78800,110210
48354219,78807,110267
48364219,78823,110335
48374219,78836,110398
48384219,78857,110477
48394219,78872,110548
48404219,78886,110610
48414219,78901,110685
48424219,78926,110724
48434219,78932,110751
48444219,78956,110773
48454219,78946,110779
48464219,78951,110790
48474219,78943,110793
48484219,78955,110786
48494219,78960,110804
48504219,78948,110822
48514219,78960,110827
48525219,78963,110866
48535219,78967,110920
48545219,78990,110977
48555219,78992,111048
48565219,79008,111079
48575219,79029,111115
48585219,79033,111171
48595219,79042,111190
48605219,79048,111210
48615219,79063,111242
48625219,79068,111278
48635219,79079,111327
48645219,79085,111371
48655219,79091,111401
48665219,79106,111424
48675219,79107,111445
48685219,79115,111454
48695219,79115,111484
48705219,79120,111493
48716219,79122,111505
48726219,79121,111525
48736219,79125,111548
48746219,79126,111584
48756219,79135,111616
48766219,79152,111637
48776219,79153,111674
48786219,79163,111696
48796219,79171,111734
48806219,79186,111743
48816219,79197,111766
48826219,79196,111774
48836219,79203,111787
48846219,79198,111804
48856219,79204,111822
48866219,79212,111843
48876219,79206,111858
48886219,79218,111883
48897219,79216,111908
48907219,79213,111936
48917219,79235,111967
48927219,79241,111974
48937219,79248,111993
48947219,79245,112001
48957219,79257,112031
48967219,79259,112044
48977219,79266,112053
48987219,79267,112085
48997219,79280,112097
49007219,79284,112099
49017219,79290,112073
49027219,79259,112010
49037219,79247,111935
49047219,79217,111803
49057219,79188,111604
49067219,79117,111348
49077219,79049,111050
49088219,78985,110821
49098219,78936,110657
49108219,78905,110602
49118219,78905,110635
49128219,78917,110733
49138219,78950,110850
49148219,78995,110981
49158219,79019,111121
49168219,79049,111208
49178219,79078,111261
49188219,79107,111316
49198219,79107,111339
49208219,79123,111370
49218219,79125,111419
49228219,79131,111477
49238219,79158,111572
49248219,79172,111638
49258219,79199,111704
49268219,79201,111757
49279219,79210,111787
49289219,79221,111819
49299219,79220,111827
49309219,79229,111839
49319219,79227,111872
49329219,79239,111892
49339219,79237,111912
49349219,79248,111933
49359219,79246,111956
49369219,79258,111988
49379219,79269,111993
49389219,79275,112006
49399219,79272,112013
49409219,79277,112020
49419219,79278,112022
49429219,79282,112037
49439219,79278,112056
49449219,79282,112065
49459219,79293,112095
49470219,79283,112102
49480219,79303,112118
49490219,79294,112144
49500219,79296,112155
49510219,79316,112167
49520219,79309,112198
49530219,79318,112216
49540219,79326,112229
49550219,79331,112255
49560219,79331,112270
49570219,79343,112288
49580219,79357,112290
49590219,79349,112299
49600219,79354,112313
49610219,79349,112319
49620219,79350,112316
49630219,79356,112334
49640219,79356,112340
49650219,79366,112351
49661219,79361,112358
49671219,79362,112367
49681219,79357,112376
49691219,79356,112396
49701219,79362,112408
49711219,79379,112406
49721219,79371,112433
49731219,79375,112447
49741219,79388,112461
49751219,79393,112466
49761219,79391,112472
49771219,79396,112486
49781219,79394,112482
49791219,79391,112432
49801219,79370,112349
49811219,79345,112243
49821219,79307,112053
49831219,79249,111807
49842219,79181,111512
49852219,79118,111279
49862219,79063,111098
49872219,79017,110993
49882219,79014,110940
49892219,79005,110947
49902219,79022,110987
49912219,79032,111045
49922219,79043,111127
49932219,79068,111209
49942219,79087,111274
49952219,79119,111355
49962219,79134,111422
49972219,79160,111489
49982219,79172,111553
49992219,79179,111589
50002219,79196,111632
50012219,79207,111679
50022219,79216,111739
50033219,79230,111798
50043219,79242,111840
50053219,79260,111884
50063219,79260,111951
50073219,79270,111995
50083219,79286,112027
50093219,79292,112054
50103219,79296,112095
50113219,79313,112102
50123219,79307,112088
50133219,79310,112084
50143219,79308,112080
50153219,79309,112077
50163219,79311,112085
50173219,79314,112104
50183219,79316,112139
50193219,79320,112161
50203219,79329,112197
50213219,79333,112219
50224219,79342,112242
50234219,79345,112267
50244219,79347,112282
50254219,79353,112299
50264219,79349,112335
50274219,79358,112361
50284219,79365,112383
50294219,79371,112402
50304219,79383,112429
50314219,79383,112435
50324219,79402,112436
50334219,79391,112451
50344219,79399,112457
50354219,79398,112482
50364219,79409,112482
50374219,79411,112505
50384219,79404,112507
50394219,79405,112520
50404219,79413,112524
50415219,79400,112526
50425219,79413,112514
50435219,79404,112540
50445219,79397,112540
50455219,79412,112539
50465219,79414,112571
50475219,79423,112581
50485219,79421,112606
50495219,79427,112608
50505219,79435,112609
50515219,79423,112556
50525219,79410,112472
50535219,79376,112318
50545219,79318,112063
50555219,79250,111718
50565219,79153,111386
50575219,79088,111103
50585219,79010,110899
50595219,78964,110713
50606219,78941,110617
50616219,78914,110550
50626219,78908,110529
50636219,78902,110545
50646219,78905,110564
50656219,78921,110601
50666219,78931,110667
50676219,78949,110745
50686219,78969,110834
50696219,78993,110895
50706219,79019,110947
50716219,79031,110985
50726219,79046,111012
50736219,79043,111058
50746219,79050,111099
50756219,79077,111177
50766219,79095,111269
50776219,79115,111351
50787219,79125,111452
50797219,79146,111517
50807219,79163,111576
50817219,79174,111639
50827219,79168,111662
50837219,79199,111668
50847219,79191,111636
50857219,79185,111618
50867219,79183,111580
50877219,79161,111560
50887219,79158,111564
50897219,79166,111576
50907219,79174,111607
50917219,79183,111635
50927219,79196,111665
50937219,79194,111706
50947219,79202,111730
50957219,79216,111772
50967219,79210,111805
50978219,79222,111831
50988219,79231,111870
50998219,79232,111887
51008219,79237,111902
51018219,79241,111929
51028219,79249,111952
51038219,79257,111987
51048219,79261,112014
51058219,79268,112048
51068219,79278,112076
51078219,79295,112090
51088219,79302,112117
51098219,79290,112125
51108219,79297,112134
51118219,79294,112145
51128219,79302,112152
51138219,79300,112180
51148219,79302,112186
51158219,79313,112192
51169219,79305,112213
51179219,79303,112224
51189219,79317,112239
51199219,79305,112245
51209219,79311,112256
51219219,79315,112275
51229219,79319,112291
51239219,79330,112295
51249219,79321,112235
51259219,79313,112066
51269219,79247,111798
51279219,79167,111419
51289219,79068,111037
51299219,78964,110668
51309219,78876,110339
51319219,78803,110118
51329219,78754,109977
51339219,78735,109892
51350219,78709,109843
51360219,78697,109835
51370219,78702,109831
51380219,78704,109864
51390219,78714,109871
51400219,78718,109891
51410219,78718,109919
51420219,78728,109929
51430219,78728,109942
51440219,78740,109961
51450219,78744,110006
51460219,78761,110039
51470219,78770,110111
51480219,78796,110189
51490219,78813,110278
51500219,78831,110376
51510219,78853,110466
51520219,78890,110564
51530219,78899,110659
51541219,78914,110694
51551219,78932,110732
51561219,78930,110748
51571219,78939,110761
51581219,78940,110766
51591219,78945,110781
51601219,78952,110781
51611219,78941,110777
51621219,78943,110783
51631219,78948,110779
51641219,78946,110789
51651219,78963,110802
51661219,78968,110829
51671219,78965,110877
51681219,78963,110934
51691219,78989,110978
51701219,79007,111031
51711219,79011,111093
51721219,79016,111133
51732219,79039,111195
51742219,79040,111218
51752219,79060,111252
51762219,79059,111291
51772219,79063,111321
51782219,79073,111357
51792219,79086,111391
51802219,79088,111430
51812219,79099,111475
51822219,79122,111501
51832219,79123,111528
51842219,79137,111566
51852219,79143,111582
51862219,79143,111617
51872219,79148,111628
51882219,79159,111662
51892219,79154,111676
51902219,79162,111709
51913219,79166,111733
51923219,79173,111754
51933219,79175,111796
51943219,79174,111805
51953219,79195,111833
51963219,79191,111862
51973219,79198,111899
51983219,79212,111937
51993219,79212,111963
52003219,79228,111991
52013219,79236,112014
52023219,79241,112025
52033219,79254,112045
52043219,79248,112066
52053219,79258,112109
52063219,79266,112123
52073219,79275,112150
52083219,79271,112179
52093219,79264,112188
52104219,79274,112209
52114219,79276,112224
52124219,79284,112243
52134219,79281,112270
52144219,79275,112277
52154219,79287,112305
52164219,79300,112322
52174219,79299,112367
52184219,79310,112391
52194219,79315,112409
52204219,79330,112441
52214219,79335,112452
52224219,79337,112475
52234219,79334,112474
52244219,79341,112472
52254219,79339,112478
52264219,79341,112401
52274219,79296,112269
52284219,79239,111936
52295219,79145,111462
52305219,79012,110975
52315219,78895,110522
52325219,78790,110202
52335219,78720,110044
52345219,78694,109942
52355219,78686,109898
52365219,78675,109879
52375219,78667,109894
52385219,78680,109891
52395219,78690,109896
52405219,78690,109888
52415219,78691,109885
52425219,78692,109901
52435219,78685,109887
52445219,78689,109900
52455219,78686,109900
52465219,78698,109925
52475219,78691,109943
52486219,78700,109992
52496219,78708,110064
52506219,78722,110134
52516219,78753,110241
52526219,78774,110333
52536219,78792,110417
52546219,78817,110483
52556219,78827,110526
52566219,78844,110576
52576219,78847,110582
52586219,78860,110587
52596219,78854,110595
52606219,78859,110600
52616219,78850,110586
52626219,78848,110566
52636219,78850,110563
52646219,78831,110560
52656219,78838,110555
52666219,78834,110582
52677219,78837,110607
52687219,78858,110645
52697219,78856,110687
52707219,78870,110721
52717219,78869,110779
52727219,78890,110829
52737219,78907,110880
52747219,78910,110917
52757219,78922,110982
52767219,78942,111024
52777219,78949,111076
52787219,78975,111117
52797219,78973,111140
52807219,78982,111171
52817219,78987,111210
52827219,79004,111240
52837219,79004,111294
52847219,79009,111330
52857219,79026,111365
52868219,79027,111393
52878219,79036,111425
52888219,79046,111447
52898219,79048,111486
52908219,79067,111506
52918219,79068,111522
52928219,79071,111544
52938219,79079,111580
52948219,79074,111589
52958219,79098,111612
52968219,79091,111639
52978219,79092,111642
52988219,79109,111656
52998219,79101,111680
53008219,79113,111703
53018219,79110,111729
53028219,79118,111754
53038219,79136,111794
53049219,79126,111811
53059219,79144,111823
53069219,79137,111857
53079219,79133,111852
53089219,79135,111875
53099219,79141,111910
53109219,79152,111945
53119219,79155,111985
53129219,79173,112008
53139219,79181,112042
53149219,79187,112048
53159219,79191,112061
53169219,79200,112079
53179219,79190,112083
53189219,79201,112105
53199219,79202,112132
53209219,79213,112164
53219219,79215,112182
53229219,79209,112201
53240219,79221,112224
53250219,79225,112231
53260219,79232,112230
53270219,79226,112250
53280219,79226,112260
53290219,79229,112263
53300219,79234,112240
53310219,79211,112109
53320219,79151,111821
53330219,79072,111318
53340219,78940,110780
53350219,78803,110298
53360219,78702,110037
53370219,78643,109876
53380219,78617,109753
53390219,78595,109694
53400219,78578,109629
53410219,78565,109603
53420219,78559,109603
53431219,78556,109588
53441219,78564,109601
53451219,78552,109606
53461219,78554,109615
53471219,78561,109627
53481219,78564,109655
53491219,78573,109679
53501219,78576,109699
53511219,78584,109719
53521219,78592,109754
53531219,78602,109812
53541219,78622,109873
53551219,78641,109930
53561219,78654,110007
53571219,78672,110077
53581219,78687,110128
53591219,78697,110187
53601219,78702,110223
53611219,78717,110262
53622219,78721,110292
53632219,78721,110304
53642219,78738,110310
53652219,78723,110294
53662219,78724,110284
53672219,78711,110273
53682219,78718,110269
53692219,78720,110280
53702219,78722,110313
53712219,78739,110338
53722219,78742,110377
53732219,78755,110418
53742219,78765,110460
53752219,78776,110525
53762219,78787,110556
53772219,78794,110604
53782219,78801,110638
53792219,78820,110672
53803219,78816,110711
53813219,78816,110733
53823219,78833,110770
53833219,78840,110804
53843219,78847,110844
53853219,78860,110878
53863219,78865,110925
53873219,78867,110964
53883219,78884,111018
53893219,78899,111067
53903219,78917,111108
53913219,78928,111145
53923219,78944,111177
53933219,78939,111194
53943219,78954,111220
53953219,78951,111249
53963219,78961,111258
53973219,78964,111279
53983219,78952,111287
53994219,78967,111314
54004219,78962,111339
54014219,78966,111383
54024219,78981,111430
54034219,78995,111468
54044219,79001,111484
54054219,79014,111498
54064219,79008,111509
54074219,79003,111537
54084219,79024,111566
54094219,79038,111613
54104219,79045,111666
54114219,79064,111734
54124219,79077,111776
54134219,79086,111798
54144219,79093,111812
54154219,79096,111837
54164219,79087,111851
54174219,79105,111886
54185219,79105,111910
54195219,79114,111933
54205219,79107,111969
54215219,79110,111999
54225219,79134,112027
54235219,79137,112061
54245219,79140,112091
54255219,79154,112116
54265219,79152,112132
54275219,79166,112148
54285219,79167,112157
54295219,79175,112166
54305219,79178,112182
54315219,79165,112199
54325219,79171,112207
54335219,79171,112153
54345219,79157,112004
54355219,79082,111673
54365219,78982,111176
54376219,78853,110639
54386219,78718,110189
54396219,78631,109939
54406219,78565,109793
54416219,78547,109703
54426219,78517,109650
54436219,78521,109636
54446219,78521,109662
54456219,78523,109668
54466219,78539,109689
54476219,78542,109708
54486219,78542,109710
54496219,78550,109727
54506219,78547,109732
54516219,78559,109740
54526219,78555,109769
54536219,78555,109782
54546219,78572,109824
54557219,78565,109860
54567219,78585,109904
54577219,78597,109968
54587219,78599,110039
54597219,78632,110108
54607219,78641,110164
54617219,78656,110260
54627219,78676,110319
54637219,78694,110382
54647219,78712,110414
54657219,78716,110433
54667219,78730,110429
54677219,78721,110414
54687219,78709,110376
54697219,78702,110356
54707219,78690,110349
54717219,78690,110340
54727219,78691,110368
54737219,78697,110389
54748219,78704,110434
54758219,78715,110493
54768219,78718,110540
54778219,78738,110592
54788219,78741,110639
54798219,78754,110672
54808219,78769,110696
54818219,78767,110740
54828219,78782,110797
54838219,78797,110857
54848219,78828,110941
54858219,78838,110997
54868219,78855,111042
54878219,78861,111086
54888219,78875,111114
54898219,78881,111133
54908219,78886,111178
54918219,78893,111201
54928219,78896,111248
54939219,78903,111263
54949219,78919,111306
54959219,78917,111358
54969219,78919,111408
54979219,78945,111443
54989219,78946,111478
54999219,78955,111518
55009219,78970,111544
55019219,78974,111582
55029219,78988,111619
55039219,79002,111639
55049219,79006,111656
55059219,79000,111679
55069219,79006,111706
55079219,79013,111722
55089219,79027,111762
55099219,79036,111794
55109219,79034,111836
55119219,79038,111847
55130219,79051,111879
55140219,79052,111881
55150219,79061,111903
55160219,79054,111930
55170219,79056,111955
55180219,79076,111977
55190219,79072,112014
55200219,79082,112045
55210219,79091,112081
55220219,79096,112079
55230219,79102,112116
55240219,79111,112106
55250219,79113,112104
55260219,79102,112112
55270219,79108,112124
55280219,79110,112156
55290219,79113,112159
55300219,79124,112182
55311219,79119,112199
55321219,79126,112206
55331219,79130,112230
55341219,79133,112239
55351219,79140,112246
55361219,79131,112253
55371219,79140,112217
55381219,79112,112092
55391219,79067,111814
55401219,78984,111386
55411219,78875,110948
55421219,78770,110526
55431219,78671,110198
55441219,78600,110005
55451219,78564,109887
55461219,78546,109832
55471219,78540,109786
55481219,78523,109780
55491219,78515,109786
55502219,78528,109820
55512219,78531,109862
55522219,78548,109913
55532219,78559,109981
55542219,78563,110011
55552219,78580,110048
55562219,78597,110061
55572219,78599,110079
55582219,78605,110096
55592219,78604,110124
55602219,78619,110180
55612219,78636,110266
55622219,78659,110346
55632219,78681,110416
55642219,78697,110490
55652219,78718,110554
55662219,78731,110612
55672219,78748,110670
55682219,78752,110691
55693219,78761,110710
55703219,78753,110708
55713219,78760,110679
55723219,78751,110661
55733219,78741,110647
55743219,78739,110633
55753219,78753,110656
55763219,78748,110695
55773219,78763,110758
55783219,78788,110814
55793219,78806,110880
55803219,78813,110932
55813219,78833,111014
55823219,78840,111082
55833219,78856,111144
55843219,78880,111199
55853219,78886,111216
55863219,78903,111257
55873219,78900,111312
55884219,78909,111366
55894219,78927,111438
55904219,78946,111490
55914219,78958,111544
55924219,78969,111589
55934219,78981,111636
55944219,78988,111661
55954219,78998,111691
55964219,79005,111717
55974219,79010,111745
55984219,79020,111772
55994219,79029,111802
56004219,79034,111827
56014219,79044,111879
56024219,79050,111928
56034219,79058,111930
56044219,79068,111981
56054219,79073,111994
56064219,79087,112013
56075219,79082,112036
56085219,79079,112040
56095219,79083,112062
56105219,79083,112076
56115219,79089,112103
56125219,79102,112124
56135219,79099,112138
56145219,79107,112178
56155219,79105,112199
56165219,79130,112222
56175219,79137,112239
56185219,79127,112257
56195219,79138,112276
56205219,79144,112282
56215219,79141,112297
56225219,79142,112316
56235219,79143,112333
56245219,79149,112354
56256219,79153,112383
56266219,79164,112392
56276219,79164,112424
56286219,79161,112438
56296219,79168,112444
56306219,79176,112468
56316219,79180,112487
56326219,79192,112496
56336219,79183,112509
56346219,79187,112543
56356219,79198,112541
56366219,79198,112508
56376219,79187,112466
56386219,79166,112335
56396219,79113,112069
56406219,79031,111586
56416219,78903,111105
56426219,78782,110661
56436219,78670,110359
56447219,78628,110202
56457219,78587,110097
56467219,78579,110039
56477219,78561,110034
56487219,78559,110042
56497219,78571,110061
56507219,78582,110092
56517219,78585,110147
56527219,78586,110207
56537219,78613,110254
56547219,78633,110294
56557219,78640,110340
56567219,78657,110370
56577219,78652,110419
56587219,78673,110470
56597219,78690,110537
56607219,78700,110638
56617219,78719,110715
56627219,78744,110809
56638219,78760,110869
56648219,78791,110928
56658219,78788,110987
56668219,78801,111005
56678219,78814,111046
56688219,78824,111066
56698219,78821,111091
56708219,78835,111119
56718219,78837,111134
56728219,78846,111146
56738219,78843,111131
56748219,78843,111125
56758219,78840,111115
56768219,78831,111113
56778219,78840,111127
56788219,78844,111173
56798219,78856,111218
56808219,78855,111298
56818219,78879,111382
56829219,78905,111466
56839219,78917,111540
56849219,78935,111575
56859219,78946,111627
56869219,78954,111663
56879219,78970,111698
56889219,78983,111745
56899219,78983,111787
56909219,78993,111837
56919219,79005,111865
56929219,79033,111902
56939219,79032,111924
56949219,79041,111956
56959219,79038,111965
56969219,79051,111977
56979219,79048,111997
56989219,79043,112020
56999219,79051,112034
57010219,79054,112070
57020219,79056,112083
57030219,79065,112117
57040219,79074,112153
57050219,79072,112199
57060219,79094,112235
57070219,79105,112254
57080219,79104,112274
57090219,79113,112269
57100219,79107,112297
57110219,79116,112287
57120219,79113,112299
57130219,79125,112315
57140219,79119,112347
57150219,79138,112381
57160219,79137,112426
57170219,79154,112451
57180219,79167,112491
57190219,79162,112501
57201219,79167,112514
57211219,79170,112507
57221219,79166,112510
57231219,79167,112513
57241219,79153,112526
57251219,79156,112522
57261219,79168,112535
57271219,79161,112566
57281219,79162,112583
57291219,79175,112572
57301219,79184,112522
57311219,79155,112392
57321219,79113,112145
57331219,79027,111734
57341219,78914,111262
57351219,78815,110878
57361219,78715,110583
57371219,78659,110406
57381219,78627,110360
57392219,78618,110360
57402219,78636,110421
57412219,78653,110479
57422219,78666,110558
57432219,78686,110667
57442219,78711,110766
57452219,78749,110876
57462219,78769,110972
57472219,78795,111048
57482219,78813,111126
57492219,78835,111185
57502219,78859,111262
57512219,78869,111348
57522219,78893,111432
57532219,78906,111516
57542219,78931,111574
57552219,78948,111646
57562219,78955,111706
57572219,78974,111746
57583219,78984,111793
57593219,78987,111801
57603219,78999,111822
57613219,78990,111813
57623219,78987,111787
57633219,78978,111778
57643219,78984,111764
57653219,78979,111756
57663219,78972,111735
57673219,78988,111724
57683219,78978,111735
57693219,78981,111734
57703219,78982,111738
57713219,78979,111762
57723219,78997,111791
57733219,78999,111829
57743219,78995,111851
57753219,79011,111889
57764219,79005,111910
57774219,79012,111927
57784219,79022,111957
57794219,79023,111975
57804219,79031,112001
57814219,79037,112018
57824219,79043,112058
57834219,79049,112086
57844219,79062,112109
57854219,79060,112137
57864219,79077,112157
57874219,79083,112182
57884219,79095,112219
57894219,79090,112242
57904219,79104,112249
57914219,79097,112266
57924219,79118,112290
57934219,79104,112304
57944219,79110,112311
57955219,79118,112328
57965219,79114,112349
57975219,79113,112356
57985219,79116,112382
57995219,79113,112404
58005219,79129,112414
58015219,79136,112429
58025219,79134,112471
58035219,79141,112498
58045219,79148,112513
58055219,79157,112524
58065219,79166,112543
58075219,79161,112555
58085219,79171,112553
58095219,79168,112560
58105219,79162,112556
58115219,79161,112495
58125219,79127,112366
58135219,79082,112110
58146219,79008,111726
58156219,78902,111341
58166219,78802,110981
58176219,78731,110674
58186219,78655,110485
58196219,78629,110382
58206219,78604,110325
58216219,78597,110315
58226219,78595,110318
58236219,78599,110327
58246219,78619,110357
58256219,78628,110410
58266219,78630,110451
58276219,78635,110489
58286219,78656,110524
58296219,78666,110559
58306219,78667,110605
58316219,78679,110648
58326219,78695,110719
58337219,78708,110800
58347219,78723,110889
58357219,78754,110988
58367219,78767,111080
58377219,78789,111152
58387219,78813,111227
58397219,78831,111308
58407219,78849,111382
58417219,78872,111429
58427219,78893,111473
58437219,78888,111485
58447219,78894,111464
58457219,78892,111440
58467219,78884,111423
58477219,78888,111404
58487219,78880,111414
58497219,78877,111420
58507219,78878,111438
58518219,78874,111468
58528219,78889,111498
58538219,78892,111521
58548219,78890,111574
58558219,78902,111610
58568219,78918,111666
58578219,78941,111742
58588219,78944,111811
58598219,78970,111855
58608219,78977,111903
58618219,78995,111937
58628219,78999,111954
58638219,79008,111981
58648219,79010,112018
58658219,79018,112055
58668219,79032,112101
58678219,79042,112138
58688219,79058,112167
58698219,79052,112200
58709219,79063,112212
58719219,79065,112228
58729219,79067,112268
58739219,79066,112268
58749219,79072,112285
58759219,79078,112308
58769219,79081,112325
58779219,79080,112355
58789219,79092,112379
58799219,79101,112418
58809219,79105,112439
58819219,79121,112464
58829219,79131,112507
58839219,79122,112522
58849219,79135,112541
58859219,79134,112527
58869219,79139,112527
58879219,79128,112546
58889219,79122,112553
58900219,79142,112553
58910219,79130,112534
58920219,79126,112476
58930219,79094,112352
58940219,79046,112093
58950219,78981,111728
58960219,78885,111352
58970219,78794,111041
58980219,78724,110770
58990219,78658,110554
59000219,78628,110424
59010219,78603,110380
59020219,78598,110368
59030219,78592,110411
59040219,78614,110453
59050219,78633,110500
59060219,78630,110537
59070219,78635,110560
59081219,78655,110583
59091219,78651,110603
59101219,78656,110630
59111219,78664,110684
59121219,78671,110748
59131219,78688,110800
59141219,78713,110864
59151219,78723,110946
59161219,78753,111050
59171219,78770,111145
59181219,78808,111241
59191219,78829,111327
59201219,78838,111412
59211219,78865,111484
59221219,78884,111529
59231219,78905,111549
59241219,78898,111580
59251219,78894,111568
59261219,78904,111561
59272219,78888,111554
59282219,78889,111549
59292219,78893,111563
59302219,78889,111588
59312219,78900,111609
59322219,78917,111643
59332219,78922,111693
59342219,78922,111752
59352219,78948,111793
59362219,78970,111857
59372219,78974,111895
59382219,78993,111945
59392219,78992,111967
59402219,79002,111986
59412219,79011,112013
59422219,79017,112042
59432219,79016,112065
59442219,79021,112101
59453219,79027,112116
59463219,79037,112158
59473219,79038,112178
59483219,79033,112205
59493219,79049,112237
59503219,79052,112261
59513219,79065,112283
59523219,79071,112301
59533219,79075,112322
59543219,79081,112341
59553219,79081,112350
59563219,79096,112381
59573219,79099,112423
59583219,79096,112431
59593219,79113,112459
59603219,79113,112487
59613219,79120,112493
59623219,79121,112521
59633219,79122,112529
59644219,79133,112533
59654219,79123,112571
59664219,79135,112585
59674219,79138,112593
59684219,79143,112614
59694219,79145,112637
59704219,79155,112660
59714219,79156,112679
59724219,79163,112684
59734219,79158,112706
59744219,79174,112714
59754219,79174,112720
59764219,79170,112715
59774219,79174,112670
59784219,79148,112579
59794219,79117,112396
59804219,79056,112080
59814219,78958,111685
59824219,78876,111325
59835219,78784,111034
59845219,78722,110782
59855219,78669,110615
59865219,78628,110539
59875219,78617,110498
59885219,78616,110502
59895219,78618,110538
59905219,78637,110588
59915219,78653,110649
59925219,78668,110702
59935219,78686,110742
59945219,78691,110774
59955219,78704,110818
59965219,78706,110840
59975219,78709,110866
59985219,78727,110908
59995219,78732,110968
60005219,78748,111044
60016219,78765,111147
60026219,78791,111228
60036219,78815,111330
60046219,78828,111396
60056219,78849,111463
