timestamp,red,ir
5013961,83631,111280
5023961,83650,111323
5033961,83656,111358
5043961,83663,111359
5053961,83659,111361
5063961,83667,111348
5073961,83665,111319
5083961,83652,111283
5093961,83633,111277
5103961,83647,111251
5114961,83624,111236
5124961,83636,111261
5134961,83627,111269
5144961,83635,111281
5154961,83631,111311
5164961,83646,111338
5174961,83657,111373
5184961,83671,111416
5194961,83672,111467
5204961,83699,111514
5214961,83710,111548
5224961,83725,111603
5234961,83730,111635
5244961,83745,111683
5254961,83743,111739
5264961,83762,111767
5274961,83775,111813
5284961,83796,111855
5294961,83794,111896
5305961,83793,111943
5315961,83817,111978
5325961,83818,112010
5335961,83819,112060
5345961,83845,112090
5355961,83852,112116
5365961,83865,112142
5375961,83867,112194
5385961,83866,112207
5395961,83880,112137
5405961,83846,111968
5415961,83795,111680
5425961,83714,111371
5435961,83625,111053
5445961,83550,110769
5455961,83486,110533
5465961,83437,110382
5475961,83396,110273
5485961,83369,110235
5496961,83361,110216
5506961,83350,110239
5516961,83364,110287
5526961,83382,110365
5536961,83403,110424
5546961,83431,110484
5556961,83434,110567
5566961,83463,110635
5576961,83475,110690
5586961,83501,110749
5596961,83514,110797
5606961,83522,110853
5616961,83538,110910
5626961,83562,110956
5636961,83573,110989
5646961,83584,111034
5656961,83582,111040
5666961,83579,111050
5677961,83573,111026
5687961,83574,110994
5697961,83562,110977
5707961,83556,110961
5717961,83557,110927
5727961,83552,110912
5737961,83547,110922
5747961,83562,110928
5757961,83559,110960
5767961,83566,111001
5777961,83581,111031
5787961,83601,111066
5797961,83614,111111
5807961,83606,111162
5817961,83631,111198
5827961,83654,111237
5837961,83662,111307
5847961,83661,111349
5857961,83671,111404
5868961,83702,111463
5878961,83707,111522
5888961,83721,111586
5898961,83746,111643
5908961,83745,111687
5918961,83758,111730
5928961,83781,111770
5938961,83797,111852
5948961,83803,111877
5958961,83814,111914
5968961,83828,111944
5978961,83836,111984
5988961,83848,112025
5998961,83854,112038
6008961,83860,112061
6018961,83877,112110
6028961,83874,112132
6038961,83880,112170
6049961,83892,112183
6059961,83888,112116
6069961,83848,111920
6079961,83787,111662
6089961,83731,111378
6099961,83650,111089
6109961,83572,110835
6119961,83524,110640
6129961,83473,110505
6139961,83463,110431
6149961,83447,110405
6159961,83447,110420
6169961,83459,110460
6179961,83467,110522
6189961,83486,110594
6199961,83507,110682
6209961,83518,110754
6219961,83553,110818
6230961,83564,110903
6240961,83580,110960
6250961,83598,111021
6260961,83612,111104
6270961,83620,111163
6280961,83654,111233
6290961,83670,111284
6300961,83685,111338
6310961,83683,111381
6320961,83707,111396
6330961,83718,111403
6340961,83720,111379
6350961,83716,111357
6360961,83696,111324
6370961,83687,111293
6380961,83694,111282
6390961,83692,111270
6400961,83684,111287
6410961,83683,111285
6421961,83684,111302
6431961,83691,111346
6441961,83697,111370
6451961,83708,111411
6461961,83723,111469
6471961,83742,111503
6481961,83752,111568
6491961,83771,111621
6501961,83777,111682
6511961,83801,111733
6521961,83817,111781
6531961,83825,111830
6541961,83846,111880
6551961,83856,111938
6561961,83866,111975
6571961,83876,112012
6581961,83882,112053
6591961,83898,112101
6602961,83903,112138
6612961,83909,112193
6622961,83930,112213
6632961,83931,112262
6642961,83926,112301
6652961,83953,112335
6662961,83965,112368
6672961,83964,112412
6682961,83978,112437
6692961,83978,112360
6702961,83948,112156
6712961,83890,111886
6722961,83815,111593
6732961,83739,111322
6742961,83667,111090
6752961,83625,110905
6762961,83578,110794
6772961,83559,110737
6782961,83542,110710
6793961,83546,110747
6803961,83562,110783
6813961,83567,110854
6823961,83580,110951
6833961,83615,111023
6843961,83637,111093
6853961,83658,111171
6863961,83675,111271
6873961,83696,111336
6883961,83723,111405
6893961,83741,111483
6903961,83767,111575
6913961,83790,111646
6923961,83805,111702
6933961,83804,111738
6943961,83827,111762
6953961,83828,111761
6963961,83815,111727
6973961,83808,111702
6984961,83800,111645
6994961,83781,111595
7004961,83770,111564
7014961,83754,111538
7024961,83756,111523
7034961,83757,111522
7044961,83769,111545
7054961,83768,111578
7064961,83776,111599
7074961,83788,111641
7084961,83803,111679
7094961,83806,111731
7104961,83835,111803
7114961,83843,111855
7124961,83857,111910
7134961,83877,111967
7144961,83876,112004
7154961,83881,112044
7165961,83894,112101
7175961,83912,112150
7185961,83917,112222
7195961,83939,112256
7205961,83946,112314
7215961,83958,112352
7225961,83975,112400
7235961,83992,112463
7245961,84006,112502
7255961,84019,112546
7265961,84027,112555
7275961,84023,112468
7285961,83987,112268
7295961,83915,111985
7305961,83848,111688
7315961,83773,111406
7325961,83709,111209
7335961,83661,111046
7345961,83611,110935
7356961,83607,110869
7366961,83586,110847
7376961,83577,110876
7386961,83592,110930
7396961,83607,110996
7406961,83629,111056
7416961,83638,111152
7426961,83676,111248
7436961,83700,111317
7446961,83728,111409
7456961,83745,111480
7466961,83766,111563
7476961,83786,111660
7486961,83816,111719
7496961,83825,111789
7506961,83854,111853
7516961,83850,111869
7526961,83850,111883
7537961,83855,111891
7547961,83848,111851
7557961,83836,111818
7567961,83834,111776
7577961,83812,111739
7587961,83810,111702
7597961,83806,111686
7607961,83802,111688
7617961,83797,111686
7627961,83804,111698
7637961,83814,111722
7647961,83833,111754
7657961,83838,111782
7667961,83848,111826
7677961,83850,111855
7687961,83867,111906
7697961,83868,111941
7707961,83876,111985
7717961,83884,112051
7728961,83904,112092
7738961,83908,112152
7748961,83930,112192
7758961,83932,112248
7768961,83940,112290
7778961,83956,112333
7788961,83966,112375
7798961,83979,112422
7808961,83989,112474
7818961,84003,112475
7828961,84005,112394
7838961,83971,112184
7848961,83903,111896
7858961,83816,111607
7868961,83748,111310
7878961,83674,111066
7888961,83614,110887
7898961,83578,110762
7909961,83545,110683
7919961,83532,110660
7929961,83525,110654
7939961,83528,110692
7949961,83540,110757
7959961,83558,110814
7969961,83578,110877
7979961,83593,110960
7989961,83620,111014
7999961,83635,111082
8009961,83658,111150
8019961,83684,111226
8029961,83703,111286
8039961,83704,111370
8049961,83720,111438
8059961,83740,111500
8069961,83763,111556
8079961,83771,111584
8089961,83765,111596
8100961,83779,111585
8110961,83759,111557
8120961,83747,111526
8130961,83738,111477
8140961,83730,111445
8150961,83732,111426
8160961,83732,111403
8170961,83730,111412
8180961,83725,111419
8190961,83741,111443
8200961,83744,111459
8210961,83744,111489
8220961,83762,111529
8230961,83767,111566
8240961,83781,111599
8250961,83790,111643
8260961,83795,111700
8270961,83803,111742
8280961,83819,111785
8291961,83830,111825
8301961,83849,111895
8311961,83844,111934
8321961,83856,111986
8331961,83880,112031
8341961,83881,112081
8351961,83894,112120
8361961,83899,112136
8371961,83905,112080
8381961,83883,111891
8391961,83821,111614
8401961,83747,111314
8411961,83660,111013
8421961,83594,110753
8431961,83537,110551
8441961,83491,110399
8451961,83453,110326
8461961,83439,110288
8472961,83430,110297
8482961,83432,110329
8492961,83445,110380
8502961,83451,110440
8512961,83466,110526
8522961,83494,110587
8532961,83514,110652
8542961,83536,110733
8552961,83553,110810
8562961,83575,110859
8572961,83582,110914
8582961,83608,110986
8592961,83628,111042
8602961,83641,111110
8612961,83651,111169
8622961,83675,111203
8632961,83679,111229
8642961,83694,111253
8652961,83684,111242
8663961,83682,111219
8673961,83676,111204
8683961,83657,111179
8693961,83650,111161
8703961,83654,111151
8713961,83650,111149
8723961,83661,111158
8733961,83657,111188
8743961,83676,111231
8753961,83683,111253
8763961,83694,111304
8773961,83707,111350
8783961,83732,111400
8793961,83736,111461
8803961,83756,111525
8813961,83775,111556
8823961,83774,111619
8833961,83787,111689
8844961,83800,111734
8854961,83819,111791
8864961,83832,111846
8874961,83844,111913
8884961,83854,111958
8894961,83868,112022
8904961,83897,112075
8914961,83899,112114
8924961,83906,112063
8934961,83879,111878
8944961,83819,111571
8954961,83735,111240
8964961,83655,110927
8974961,83566,110637
8984961,83499,110397
8994961,83447,110214
9004961,83403,110111
9014961,83371,110072
9024961,83378,110050
9035961,83365,110075
9045961,83391,110130
9055961,83389,110189
9065961,83410,110262
9075961,83419,110346
9085961,83462,110424
9095961,83470,110483
9105961,83491,110547
9115961,83517,110615
9125961,83533,110668
9135961,83546,110739
9145961,83562,110804
9155961,83574,110861
9165961,83610,110930
9175961,83614,110983
9185961,83630,111023
9195961,83640,111055
9205961,83646,111067
9216961,83640,111073
9226961,83637,111075
9236961,83633,111042
9246961,83628,111023
9256961,83624,111025
9266961,83630,111012
9276961,83641,111028
9286961,83635,111048
9296961,83635,111082
9306961,83654,111112
9316961,83676,111159
9326961,83689,111213
9336961,83700,111266
9346961,83716,111313
9356961,83725,111374
9366961,83745,111428
9376961,83747,111480
9386961,83769,111543
9396961,83778,111592
9407961,83794,111639
9417961,83809,111695
9427961,83815,111754
9437961,83829,111814
9447961,83851,111868
9457961,83856,111913
9467961,83867,111972
9477961,83882,112030
9487961,83901,112088
9497961,83922,112097
9507961,83915,112047
9517961,83902,111843
9527961,83827,111531
9537961,83732,111218
9547961,83653,110887
9557961,83567,110603
9567961,83510,110388
9577961,83451,110224
9587961,83418,110133
9598961,83408,110109
9608961,83392,110103
9618961,83394,110146
9628961,83421,110224
9638961,83433,110301
9648961,83456,110381
9658961,83482,110463
9668961,83500,110547
9678961,83528,110620
9688961,83547,110689
9698961,83571,110746
9708961,83589,110812
9718961,83589,110889
9728961,83620,110946
9738961,83639,111006
9748961,83656,111078
9758961,83662,111118
9768961,83673,111158
9779961,83678,111172
9789961,83683,111186
9799961,83680,111184
9809961,83683,111197
9819961,83678,111181
9829961,83677,111168
9839961,83675,111158
9849961,83671,111163
9859961,83673,111164
9869961,83674,111185
9879961,83691,111217
9889961,83707,111256
9899961,83706,111292
9909961,83721,111332
9919961,83729,111376
9929961,83750,111420
9939961,83754,111467
9949961,83763,111512
9959961,83783,111584
9970961,83799,111623
9980961,83805,111690
9990961,83825,111729
10000961,83821,111798
10010961,83834,111837
10020961,83856,111907
10030961,83869,111946
10040961,83886,112013
10050961,83901,112062
10060961,83916,112100
10070961,83932,112150
10080961,83947,112190
10090961,83954,112235
10100961,83961,112271
10110961,83976,112300
10120961,83970,112253
10130961,83946,112093
10140961,83883,111829
10151961,83800,111495
10161961,83717,111194
10171961,83644,110915
10181961,83570,110681
10191961,83527,110535
10201961,83495,110445
10211961,83492,110407
10221961,83476,110414
10231961,83490,110461
10241961,83494,110534
10251961,83531,110609
10261961,83545,110675
10271961,83563,110757
10281961,83590,110836
10291961,83610,110920
10301961,83634,110990
10311961,83646,111052
10321961,83658,111132
10331961,83678,111200
10342961,83695,111276
10352961,83708,111357
10362961,83741,111406
10372961,83745,111459
10382961,83763,111504
10392961,83767,111517
10402961,83769,111525
10412961,83762,111536
10422961,83768,111503
10432961,83756,111468
10442961,83761,111457
10452961,83752,111443
10462961,83756,111428
10472961,83750,111439
10482961,83748,111435
10492961,83753,111467
10502961,83756,111478
10512961,83759,111527
10523961,83777,111570
10533961,83780,111614
10543961,83798,111672
10553961,83810,111729
10563961,83825,111779
10573961,83829,111837
10583961,83861,111898
10593961,83866,111952
10603961,83876,112014
10613961,83898,112073
10623961,83916,112113
10633961,83936,112162
10643961,83929,112212
10653961,83944,112265
10663961,83961,112293
10673961,83978,112349
10683961,83975,112375
10693961,84000,112428
10703961,83986,112456
10714961,84002,112488
10724961,84001,112542
10734961,84018,112570
10744961,84021,112578
10754961,84012,112520
10764961,84004,112329
10774961,83922,112035
10784961,83854,111742
10794961,83768,111474
10804961,83717,111229
10814961,83663,111059
10824961,83627,110942
10834961,83613,110876
10844961,83596,110862
10854961,83590,110881
10864961,83608,110930
10874961,83619,110988
10884961,83631,111075
10895961,83644,111149
10905961,83671,111240
10915961,83693,111316
10925961,83709,111403
10935961,83720,111468
10945961,83753,111542
10955961,83766,111615
10965961,83781,111705
10975961,83797,111777
10985961,83830,111863
10995961,83850,111913
11005961,83854,111947
11015961,83878,111962
11025961,83861,111963
11035961,83864,111932
11045961,83856,111904
11055961,83847,111861
11065961,83838,111845
11075961,83828,111814
11086961,83823,111785
11096961,83822,111786
11106961,83815,111794
11116961,83810,111824
11126961,83831,111859
11136961,83837,111887
11146961,83846,111926
11156961,83853,111979
11166961,83875,112038
11176961,83885,112090
11186961,83902,112144
11196961,83908,112191
11206961,83935,112244
11216961,83926,112311
11226961,83958,112338
11236961,83959,112391
11246961,83986,112458
11256961,83979,112491
11266961,83998,112546
11277961,83999,112577
11287961,84011,112615
11297961,84018,112654
11307961,84031,112701
11317961,84032,112741
11327961,84037,112758
11337961,84044,112714
11347961,84010,112530
11357961,83954,112235
11367961,83883,111950
11377961,83810,111681
11387961,83751,111446
11397961,83692,111295
11407961,83664,111188
11417961,83643,111146
11427961,83647,111149
11437961,83640,111158
11447961,83638,111211
11458961,83659,111282
11468961,83676,111350
11478961,83686,111435
11488961,83716,111530
11498961,83728,111610
11508961,83756,111677
11518961,83769,111771
11528961,83800,111870
11538961,83811,111959
11548961,83836,112046
11558961,83869,112137
11568961,83891,112184
11578961,83905,112232
11588961,83906,112257
11598961,83913,112254
11608961,83907,112225
11618961,83908,112204
11628961,83887,112154
11638961,83870,112130
11649961,83880,112098
11659961,83853,112055
11669961,83852,112063
11679961,83861,112066
11689961,83855,112071
11699961,83859,112102
11709961,83873,112127
11719961,83872,112176
11729961,83891,112214
11739961,83907,112270
11749961,83925,112319
11759961,83933,112366
11769961,83943,112434
11779961,83969,112470
11789961,83976,112524
11799961,84000,112574
11809961,84003,112636
11819961,84007,112684
11830961,84031,112738
11840961,84034,112788
11850961,84040,112849
11860961,84061,112899
11870961,84065,112954
11880961,84082,112994
11890961,84096,112982
11900961,84082,112858
11910961,84022,112591
11920961,83955,112282
11930961,83878,111992
11940961,83803,111739
11950961,83742,111556
11960961,83696,111425
11970961,83675,111325
11980961,83662,111300
11990961,83670,111311
12000961,83660,111341
12010961,83669,111402
12021961,83683,111470
12031961,83702,111529
12041961,83724,111624
12051961,83741,111705
12061961,83758,111765
12071961,83781,111847
12081961,83800,111921
12091961,83821,111993
12101961,83838,112061
12111961,83863,112140
12121961,83888,112222
12131961,83904,112289
12141961,83908,112331
12151961,83926,112350
12161961,83922,112345
12171961,83924,112332
12181961,83916,112299
12191961,83895,112257
12202961,83884,112235
12212961,83878,112189
12222961,83862,112173
12232961,83867,112173
12242961,83867,112185
12252961,83875,112190
12262961,83876,112218
12272961,83891,112265
12282961,83903,112291
12292961,83912,112336
12302961,83915,112378
12312961,83930,112413
12322961,83937,112471
12332961,83951,112520
12342961,83961,112563
12352961,83979,112608
12362961,84003,112673
12372961,83998,112721
12382961,84010,112780
12393961,84029,112831
12403961,84039,112883
12413961,84047,112931
12423961,84072,112985
12433961,84068,112979
12443961,84056,112876
12453961,84008,112635
12463961,83945,112335
12473961,83867,112021
12483961,83796,111750
12493961,83737,111531
12503961,83690,111388
12513961,83655,111296
12523961,83636,111245
12533961,83635,111240
12543961,83631,111275
12553961,83641,111318
12563961,83645,111364
12574961,83662,111433
12584961,83680,111498
12594961,83679,111549
12604961,83705,111632
12614961,83722,111678
12624961,83736,111739
12634961,83752,111792
12644961,83758,111858
12654961,83774,111915
12664961,83787,111981
12674961,83815,112013
12684961,83829,112046
12694961,83824,112072
12704961,83823,112078
12714961,83831,112058
12724961,83820,112040
12734961,83803,112010
12744961,83804,111964
12755961,83780,111927
12765961,83765,111906
12775961,83776,111893
12785961,83769,111904
12795961,83772,111935
12805961,83789,111933
12815961,83790,111956
12825961,83789,111995
12835961,83791,112016
12845961,83813,112057
12855961,83819,112088
12865961,83827,112133
12875961,83845,112169
12885961,83852,112233
12895961,83861,112284
12905961,83885,112343
12915961,83900,112390
12925961,83907,112461
12935961,83928,112497
12946961,83933,112559
12956961,83935,112619
12966961,83962,112648
12976961,83956,112629
12986961,83941,112486
12996961,83895,112207
13006961,83807,111916
13016961,83729,111618
13026961,83655,111365
13036961,83611,111167
13046961,83564,111023
13056961,83523,110940
13066961,83522,110890
13076961,83508,110912
13086961,83521,110932
13096961,83531,110972
13106961,83536,111041
13116961,83562,111101
13127961,83559,111168
13137961,83579,111248
13147961,83608,111320
13157961,83611,111384
13167961,83626,111449
13177961,83652,111522
13187961,83676,111585
13197961,83678,111675
13207961,83705,111739
13217961,83718,111812
13227961,83756,111865
13237961,83758,111906
13247961,83778,111929
13257961,83778,111939
13267961,83780,111938
13277961,83774,111897
13287961,83765,111874
13297961,83763,111865
13307961,83745,111832
13318961,83746,111821
13328961,83751,111830
13338961,83741,111840
13348961,83746,111867
13358961,83767,111907
13368961,83772,111939
13378961,83779,111975
13388961,83784,112026
13398961,83812,112077
13408961,83833,112121
13418961,83838,112173
13428961,83853,112222
13438961,83866,112263
13448961,83872,112319
13458961,83880,112364
13468961,83905,112409
13478961,83907,112450
13488961,83916,112506
13499961,83934,112545
13509961,83947,112585
13519961,83953,112638
13529961,83961,112634
13539961,83939,112518
13549961,83898,112262
13559961,83829,111958
13569961,83744,111646
13579961,83667,111361
13589961,83601,111137
13599961,83556,110971
13609961,83516,110854
13619961,83488,110807
13629961,83494,110798
13639961,83484,110813
13649961,83498,110849
13659961,83507,110904
13669961,83521,110967
13679961,83542,111048
13690961,83547,111098
13700961,83561,111184
13710961,83587,111238
13720961,83592,111303
13730961,83610,111342
13740961,83633,111412
13750961,83648,111480
13760961,83664,111555
13770961,83684,111616
13780961,83704,111674
13790961,83731,111714
13800961,83732,111746
13810961,83732,111764
13820961,83742,111768
13830961,83741,111767
13840961,83742,111739
13850961,83730,111705
13860961,83725,111691
13871961,83724,111689
13881961,83714,111688
13891961,83720,111708
13901961,83729,111729
13911961,83730,111763
13921961,83739,111799
13931961,83757,111839
13941961,83769,111885
13951961,83775,111942
13961961,83785,111974
13971961,83805,112011
13981961,83822,112081
13991961,83841,112135
14001961,83841,112182
14011961,83858,112221
14021961,83864,112279
14031961,83894,112330
14041961,83890,112377
14051961,83903,112428
14062961,83915,112474
14072961,83922,112521
14082961,83928,112583
14092961,83963,112629
14102961,83966,112654
14112961,83971,112672
14122961,83960,112595
14132961,83936,112364
14142961,83863,112046
14152961,83783,111728
14162961,83701,111423
14172961,83627,111158
14182961,83574,110989
14192961,83530,110871
14202961,83502,110799
14212961,83493,110775
14222961,83508,110801
14232961,83498,110843
14243961,83502,110915
14253961,83533,110970
14263961,83537,111058
14273961,83556,111130
14283961,83588,111214
14293961,83605,111287
14303961,83624,111367
14313961,83642,111432
14323961,83654,111505
14333961,83682,111573
14343961,83697,111645
14353961,83708,111707
14363961,83740,111756
14373961,83749,111799
14383961,83766,111827
14393961,83763,111821
14403961,83763,111837
14413961,83764,111817
14424961,83755,111786
14434961,83737,111761
14444961,83737,111723
14454961,83718,111715
14464961,83720,111729
14474961,83726,111714
14484961,83730,111741
14494961,83736,111778
14504961,83752,111819
14514961,83765,111851
14524961,83790,111906
14534961,83792,111937
14544961,83813,111990
14554961,83816,112043
14564961,83837,112086
14574961,83849,112135
14584961,83854,112180
14594961,83861,112234
14604961,83868,112274
14615961,83880,112320
14625961,83895,112379
14635961,83906,112416
14645961,83911,112470
14655961,83926,112525
14665961,83932,112556
14675961,83951,112601
14685961,83965,112653
14695961,83977,112688
14705961,83985,112730
14715961,84001,112749
14725961,83999,112718
14735961,83977,112563
14745961,83916,112277
14755961,83843,111948
14765961,83769,111634
14775961,83676,111350
14785961,83604,111143
14796961,83566,110996
14806961,83525,110898
14816961,83515,110858
14826961,83504,110879
14836961,83509,110908
14846961,83522,110963
14856961,83546,111046
14866961,83559,111135
14876961,83584,111219
14886961,83614,111315
14896961,83628,111388
14906961,83662,111459
14916961,83681,111530
14926961,83698,111608
14936961,83698,111666
14946961,83727,111743
14956961,83749,111797
14966961,83753,111859
14976961,83767,111897
14987961,83781,111920
14997961,83775,111919
15007961,83767,111935
15017961,83782,111921
15027961,83767,111876
15037961,83760,111848
15047961,83759,111833
15057961,83752,111832
15067961,83752,111809
15077961,83758,111822
15087961,83761,111836
15097961,83766,111847
15107961,83770,111873
15117961,83773,111911
15127961,83795,111951
15137961,83790,111995
15147961,83814,112056
15157961,83820,112094
15168961,83827,112130
15178961,83839,112194
15188961,83852,112239
15198961,83860,112294
15208961,83878,112339
15218961,83890,112389
15228961,83898,112428
15238961,83915,112478
15248961,83920,112527
15258961,83944,112566
15268961,83944,112608
15278961,83961,112651
15288961,83969,112698
15298961,83975,112723
15308961,83976,112762
15318961,83993,112780
15328961,84000,112813
15338961,84002,112860
15349961,84017,112858
15359961,83990,112785
15369961,83976,112565
15379961,83893,112256
15389961,83813,111930
15399961,83725,111638
15409961,83670,111404
15419961,83615,111241
15429961,83576,111129
15439961,83561,111083
15449961,83563,111078
15459961,83563,111094
15469961,83572,111156
15479961,83591,111232
15489961,83608,111297
15499961,83628,111379
15509961,83645,111459
15519961,83662,111545
15529961,83682,111636
15540961,83711,111705
15550961,83720,111804
15560961,83743,111864
15570961,83763,111963
15580961,83778,112018
15590961,83804,112097
15600961,83819,112152
15610961,83826,112179
15620961,83842,112188
15630961,83840,112178
15640961,83835,112141
15650961,83828,112077
15660961,83815,112030
15670961,83796,111989
15680961,83787,111947
15690961,83783,111938
15700961,83782,111917
15710961,83778,111937
15721961,83775,111936
15731961,83778,111953
15741961,83770,111973
15751961,83794,112009
15761961,83791,112060
15771961,83810,112096
15781961,83828,112151
15791961,83833,112215
15801961,83847,112257
15811961,83865,112310
15821961,83874,112358
15831961,83895,112410
15841961,83909,112460
15851961,83917,112499
15861961,83929,112539
15871961,83927,112580
15881961,83938,112623
15891961,83948,112662
15902961,83957,112704
15912961,83974,112748
15922961,83978,112766
15932961,83977,112713
15942961,83946,112525
15952961,83885,112232
15962961,83808,111951
15972961,83736,111686
15982961,83684,111507
15992961,83633,111332
16002961,83607,111246
16012961,83588,111196
16022961,83589,111191
16032961,83595,111226
16042961,83598,111261
16052961,83617,111337
16062961,83628,111433
16072961,83650,111501
16082961,83663,111597
16093961,83688,111669
16103961,83705,111759
16113961,83722,111842
16123961,83756,111942
16133961,83774,112045
16143961,83791,112133
16153961,83826,112216
16163961,83854,112285
16173961,83863,112339
16183961,83878,112376
16193961,83887,112380
16203961,83879,112359
16213961,83878,112318
16223961,83857,112270
16233961,83848,112209
16243961,83834,112175
16253961,83813,112132
16263961,83822,112095
16274961,83806,112084
16284961,83803,112088
16294961,83802,112103
16304961,83805,112124
16314961,83806,112170
16324961,83827,112204
16334961,83834,112228
16344961,83849,112285
16354961,83855,112339
16364961,83872,112380
16374961,83889,112427
16384961,83900,112476
16394961,83913,112520
16404961,83931,112566
16414961,83940,112608
16424961,83941,112656
16434961,83954,112705
16444961,83957,112746
16454961,83978,112803
16465961,83976,112817
16475961,83982,112759
16485961,83954,112560
16495961,83883,112275
16505961,83803,111979
16515961,83728,111697
16525961,83665,111475
16535961,83616,111305
16545961,83599,111221
16555961,83562,111155
16565961,83566,111155
16575961,83561,111160
16585961,83567,111190
16595961,83574,111242
16605961,83587,111317
16615961,83616,111382
16625961,83625,111459
16635961,83648,111536
16646961,83662,111603
16656961,83666,111687
16666961,83695,111744
16676961,83705,111831
16686961,83726,111905
16696961,83744,111985
16706961,83772,112054
16716961,83786,112098
16726961,83792,112131
16736961,83800,112138
16746961,83800,112118
16756961,83789,112097
16766961,83785,112051
16776961,83781,112012
16786961,83753,111962
16796961,83758,111924
16806961,83747,111912
16816961,83750,111894
16826961,83730,111906
16837961,83732,111925
16847961,83744,111942
16857961,83743,111964
16867961,83759,112013
16877961,83758,112045
16887961,83763,112081
16897961,83787,112132
16907961,83798,112182
16917961,83806,112229
16927961,83829,112288
16937961,83839,112337
16947961,83862,112370
16957961,83871,112422
16967961,83874,112461
16977961,83889,112508
16987961,83893,112540
16997961,83891,112531
17007961,83878,112389
17017961,83828,112127
17028961,83761,111838
17038961,83673,111528
17048961,83596,111275
17058961,83544,111064
17068961,83497,110917
17078961,83448,110813
17088961,83434,110770
17098961,83434,110782
17108961,83437,110788
17118961,83447,110827
17128961,83458,110878
17138961,83475,110951
17148961,83498,111023
17158961,83509,111082
17168961,83530,111136
17178961,83542,111185
17188961,83564,111253
17198961,83554,111311
17209961,83577,111367
17219961,83599,111444
17229961,83603,111505
17239961,83617,111556
17249961,83639,111593
17259961,83647,111625
17269961,83650,111644
17279961,83649,111646
17289961,83650,111623
17299961,83648,111609
17309961,83649,111590
17319961,83646,111562
17329961,83646,111537
17339961,83633,111550
17349961,83639,111540
17359961,83632,111548
17369961,83633,111575
17379961,83644,111606
17390961,83650,111634
17400961,83659,111691
17410961,83674,111729
17420961,83681,111770
17430961,83693,111817
17440961,83711,111859
17450961,83719,111912
17460961,83730,111964
17470961,83742,112020
17480961,83763,112077
17490961,83786,112129
17500961,83794,112164
17510961,83809,112216
17520961,83812,112255
17530961,83830,112262
17540961,83821,112172
17550961,83775,111953
17560961,83696,111657
17570961,83624,111325
17581961,83532,111013
17591961,83460,110769
17601961,83411,110561
17611961,83357,110424
17621961,83327,110346
17631961,83308,110306
17641961,83313,110310
17651961,83317,110360
17661961,83319,110405
17671961,83348,110461
17681961,83362,110521
17691961,83371,110583
17701961,83398,110651
17711961,83411,110698
17721961,83431,110747
17731961,83439,110797
17741961,83452,110857
17751961,83456,110897
17762961,83474,110965
17772961,83490,111017
17782961,83509,111056
17792961,83509,111100
17802961,83516,111118
17812961,83522,111129
17822961,83532,111121
17832961,83518,111110
17842961,83516,111084
17852961,83506,111048
17862961,83518,111036
17872961,83516,111013
17882961,83504,111029
17892961,83513,111039
17902961,83512,111055
17912961,83531,111083
17922961,83535,111118
17932961,83537,111150
17942961,83547,111199
17953961,83569,111243
17963961,83566,111293
17973961,83578,111329
17983961,83589,111386
17993961,83599,111436
18003961,83625,111473
18013961,83627,111516
18023961,83648,111591
18033961,83661,111622
18043961,83668,111673
18053961,83681,111718
18063961,83704,111756
18073961,83716,111785
18083961,83717,111821
18093961,83725,111855
18103961,83743,111886
18113961,83740,111851
18123961,83710,111706
18134961,83660,111443
18144961,83588,111112
18154961,83494,110776
18164961,83404,110480
18174961,83340,110221
18184961,83290,110052
18194961,83242,109930
18204961,83213,109879
18214961,83209,109875
18224961,83227,109901
18234961,83240,109933
18244961,83242,110007
18254961,83268,110089
18264961,83284,110165
18274961,83309,110218
18284961,83327,110286
18294961,83340,110346
18304961,83367,110408
18315961,83367,110455
18325961,83382,110513
18335961,83402,110575
18345961,83405,110628
18355961,83427,110684
18365961,83448,110732
18375961,83445,110772
18385961,83470,110797
18395961,83474,110811
18405961,83483,110817
18415961,83483,110796
18425961,83479,110781
18435961,83469,110762
18445961,83471,110736
18455961,83472,110748
18465961,83473,110747
18475961,83479,110755
18485961,83475,110765
18495961,83490,110807
18506961,83488,110835
18516961,83499,110888
18526961,83518,110924
18536961,83524,110984
18546961,83542,111022
18556961,83548,111073
18566961,83572,111119
18576961,83573,111162
18586961,83592,111208
18596961,83602,111258
18606961,83634,111309
18616961,83638,111350
18626961,83654,111400
18636961,83659,111440
18646961,83668,111499
18656961,83694,111508
18666961,83693,111546
18676961,83702,111581
18687961,83708,111630
18697961,83709,111645
18707961,83713,111675
18717961,83733,111742
18727961,83740,111755
18737961,83738,111737
18747961,83729,111632
18757961,83694,111407
18767961,83628,111096
18777961,83548,110794
18787961,83477,110502
18797961,83409,110252
18807961,83357,110073
18817961,83301,109951
18827961,83297,109890
18837961,83273,109881
18847961,83295,109902
18857961,83303,109949
18867961,83305,110017
18878961,83331,110090
18888961,83346,110154
18898961,83364,110250
18908961,83387,110309
18918961,83398,110363
18928961,83418,110416
18938961,83427,110475
18948961,83458,110531
18958961,83458,110601
18968961,83482,110646
18978961,83493,110706
18988961,83521,110739
18998961,83523,110777
19008961,83533,110791
19018961,83528,110792
19028961,83535,110779
19038961,83525,110769
19048961,83531,110750
19059961,83515,110721
19069961,83511,110713
19079961,83513,110719
19089961,83513,110724
19099961,83522,110754
19109961,83538,110785
19119961,83540,110831
19129961,83563,110869
19139961,83555,110925
19149961,83601,110969
19159961,83610,111018
19169961,83622,111077
19179961,83641,111126
19189961,83645,111185
19199961,83666,111234
19209961,83678,111279
19219961,83689,111320
19229961,83705,111391
19240961,83708,111429
19250961,83726,111487
19260961,83740,111525
19270961,83754,111566
19280961,83757,111614
19290961,83779,111662
19300961,83787,111705
19310961,83791,111738
19320961,83808,111798
19330961,83837,111833
19340961,83846,111846
19350961,83855,111892
19360961,83851,111918
19370961,83868,111942
19380961,83872,111981
19390961,83889,111996
19400961,83888,112023
19410961,83889,112054
19420961,83905,112082
19431961,83901,112106
19441961,83909,112099
19451961,83907,112028
19461961,83863,111830
19471961,83803,111537
19481961,83735,111229
19491961,83658,110921
19501961,83573,110668
19511961,83515,110474
19521961,83476,110333
19531961,83465,110266
19541961,83443,110242
19551961,83441,110261
19561961,83454,110306
19571961,83472,110362
19581961,83491,110438
19591961,83512,110530
19601961,83529,110598
19612961,83549,110678
19622961,83561,110736
19632961,83572,110800
19642961,83601,110861
19652961,83608,110904
19662961,83622,110961
19672961,83636,111029
19682961,83654,111087
19692961,83673,111125
19702961,83681,111173
19712961,83691,111167
19722961,83709,111176
19732961,83702,111152
19742961,83695,111139
19752961,83686,111118
19762961,83691,111105
19772961,83682,111075
19782961,83671,111058
19792961,83674,111072
19803961,83682,111071
19813961,83685,111116
19823961,83691,111134
19833961,83697,111181
19843961,83705,111226
19853961,83731,111285
19863961,83741,111330
19873961,83757,111374
19883961,83771,111433
19893961,83787,111480
19903961,83801,111527
19913961,83810,111585
19923961,83822,111636
19933961,83837,111662
19943961,83849,111731
19953961,83866,111755
19963961,83871,111793
19973961,83874,111840
19984961,83882,111863
19994961,83890,111914
20004961,83900,111936
20014961,83919,111982
20024961,83926,112013
20034961,83926,112046
20044961,83934,112072
20054961,83939,112097
20064961,83954,112129
20074961,83959,112143
20084961,83969,112169
20094961,83986,112185
20104961,83990,112217
20114961,83991,112238
20124961,83999,112262
20134961,84008,112295
20144961,84013,112310
20154961,84004,112280
20164961,83988,112169
20175961,83951,111931
20185961,83879,111646
20195961,83810,111359
20205961,83728,111097
20215961,83659,110884
20225961,83622,110711
20235961,83586,110623
20245961,83559,110584
20255961,83562,110584
20265961,83581,110626
20275961,83596,110677
20285961,83609,110751
20295961,83634,110838
20305961,83643,110925
20315961,83669,111001
20325961,83691,111060
20335961,83714,111127
20345961,83721,111206
20356961,83748,111266
20366961,83755,111332
20376961,83781,111403
20386961,83785,111474
20396961,83797,111521
20406961,83807,111556
20416961,83827,111575
20426961,83822,111565
20436961,83807,111541
20446961,83808,111496
20456961,83810,111444
20466961,83798,111390
20476961,83785,111361
20486961,83772,111337
20496961,83770,111325
20506961,83770,111337
20516961,83769,111342
20526961,83772,111371
20536961,83786,111407
20547961,83789,111448
20557961,83791,111473
20567961,83816,111535
20577961,83824,111585
20587961,83833,111639
20597961,83861,111705
20607961,83870,111756
20617961,83883,111809
20627961,83894,111869
20637961,83919,111907
20647961,83930,111951
20657961,83924,111986
20667961,83944,112027
20677961,83944,112066
20687961,83961,112099
20697961,83968,112120
20707961,83974,112146
20717961,83970,112181
20728961,83993,112197
20738961,83986,112240
20748961,84005,112265
20758961,84001,112291
20768961,83999,112318
20778961,84012,112305
20788961,84006,112209
20798961,83959,112005
20808961,83915,111758
20818961,83834,111477
20828961,83776,111215
20838961,83703,110991
20848961,83677,110835
20858961,83623,110729
20868961,83619,110667
20878961,83598,110658
20888961,83604,110676
20898961,83609,110725
20908961,83622,110784
20919961,83630,110871
20929961,83658,110925
20939961,83665,111005
20949961,83688,111079
20959961,83707,111150
20969961,83716,111219
20979961,83748,111286
20989961,83770,111359
20999961,83789,111437
21009961,83815,111511
21019961,83818,111573
21029961,83846,111602
21039961,83841,111621
21049961,83847,111622
21059961,83834,111593
21069961,83840,111553
21079961,83817,111509
21089961,83822,111466
21100961,83794,111418
21110961,83787,111398
21120961,83776,111373
21130961,83777,111379
21140961,83775,111399
21150961,83791,111405
21160961,83793,111447
21170961,83802,111474
21180961,83811,111537
21190961,83823,111582
21200961,83843,111620
21210961,83852,111664
21220961,83871,111724
21230961,83884,111774
21240961,83890,111825
21250961,83901,111873
21260961,83923,111920
21270961,83926,111971
21280961,83944,112009
21291961,83943,112050
21301961,83960,112101
21311961,83968,112141
21321961,83969,112188
21331961,83978,112222
21341961,84002,112262
21351961,84004,112269
21361961,83990,112192
21371961,83977,111981
21381961,83914,111711
21391961,83835,111402
21401961,83770,111116
21411961,83693,110864
21421961,83625,110674
21431961,83593,110535
21441961,83559,110449
21451961,83540,110422
21461961,83541,110435
21472961,83543,110476
21482961,83555,110536
21492961,83567,110582
21502961,83582,110663
21512961,83593,110736
21522961,83630,110804
21532961,83648,110886
21542961,83662,110954
21552961,83675,111017
21562961,83703,111089
21572961,83728,111158
21582961,83737,111225
21592961,83755,111278
21602961,83774,111342
21612961,83783,111377
21622961,83784,111384
21632961,83788,111374
21642961,83777,111341
21652961,83784,111314
21663961,83753,111267
21673961,83748,111228
21683961,83745,111203
21693961,83729,111183
21703961,83731,111188
21713961,83732,111186
21723961,83741,111221
21733961,83746,111244
21743961,83759,111284
21753961,83765,111331
21763961,83787,111362
21773961,83795,111416
21783961,83809,111467
21793961,83822,111500
21803961,83830,111549
21813961,83851,111585
21823961,83848,111641
21833961,83859,111693
21844961,83878,111740
21854961,83880,111786
21864961,83891,111830
21874961,83908,111866
21884961,83911,111923
21894961,83919,111973
21904961,83938,112010
21914961,83945,111991
21924961,83929,111874
21934961,83890,111626
21944961,83822,111304
21954961,83736,110985
21964961,83654,110678
21974961,83562,110421
21984961,83517,110223
21994961,83478,110091
22004961,83444,110007
22014961,83416,109985
22024961,83418,110017
22035961,83435,110059
22045961,83451,110125
22055961,83468,110215
22065961,83490,110300
22075961,83510,110378
22085961,83536,110446
22095961,83553,110505
22105961,83563,110567
22115961,83580,110629
22125961,83601,110695
22135961,83624,110753
22145961,83639,110828
22155961,83656,110889
22165961,83678,110943
22175961,83686,110973
22185961,83691,110991
22195961,83691,110998
22205961,83683,110975
22216961,83676,110954
22226961,83675,110923
22236961,83669,110901
22246961,83667,110891
22256961,83659,110879
22266961,83660,110877
22276961,83665,110895
22286961,83668,110928
22296961,83681,110958
22306961,83696,110986
22316961,83712,111032
22326961,83723,111073
22336961,83727,111117
22346961,83737,111182
22356961,83761,111224
22366961,83755,111278
22376961,83781,111328
22386961,83797,111381
22397961,83800,111418
22407961,83813,111466
22417961,83830,111516
22427961,83830,111579
22437961,83845,111625
22447961,83858,111663
22457961,83878,111723
22467961,83884,111753
22477961,83895,111809
22487961,83895,111839
22497961,83925,111872
22507961,83924,111824
22517961,83896,111667
22527961,83842,111363
22537961,83762,111020
22547961,83673,110681
22557961,83581,110337
22567961,83491,110060
22577961,83429,109874
22588961,83393,109723
22598961,83355,109664
22608961,83340,109663
22618961,83350,109699
22628961,83366,109741
22638961,83377,109814
22648961,83405,109891
22658961,83417,109987
22668961,83447,110049
22678961,83463,110124
22688961,83488,110184
22698961,83506,110242
22708961,83522,110303
22718961,83528,110353
22728961,83553,110413
22738961,83570,110477
22748961,83584,110542
22758961,83594,110595
22769961,83602,110642
22779961,83627,110676
22789961,83618,110695
22799961,83614,110716
22809961,83637,110707
22819961,83635,110707
22829961,83628,110683
22839961,83626,110680
22849961,83641,110685
22859961,83645,110689
22869961,83644,110707
22879961,83642,110719
22889961,83658,110762
22899961,83674,110803
22909961,83673,110840
22919961,83699,110885
22929961,83710,110945
22939961,83715,110996
22950961,83732,111047
22960961,83747,111111
22970961,83770,111170
22980961,83773,111235
22990961,83791,111286
23000961,83813,111354
23010961,83828,111417
23020961,83843,111484
23030961,83857,111539
23040961,83886,111598
23050961,83904,111647
23060961,83913,111700
23070961,83929,111754
23080961,83939,111790
23090961,83943,111829
23100961,83950,111862
23110961,83964,111896
23120961,83966,111929
23130961,83970,111947
23141961,83980,111986
23151961,83980,112011
23161961,84002,112059
23171961,84006,112090
23181961,84005,112122
23191961,84020,112149
23201961,84033,112194
23211961,84041,112219
23221961,84047,112206
23231961,84041,112082
23241961,83995,111796
23251961,83902,111451
23261961,83816,111084
23271961,83721,110729
23281961,83643,110441
23291961,83580,110208
23301961,83512,110029
23311961,83474,109946
23322961,83466,109905
23332961,83456,109920
23342961,83453,109973
23352961,83484,110046
23362961,83495,110126
23372961,83514,110193
23382961,83548,110289
23392961,83567,110361
23402961,83589,110452
23412961,83607,110509
23422961,83634,110564
23432961,83652,110603
23442961,83659,110660
23452961,83668,110718
23462961,83678,110771
23472961,83706,110830
23482961,83716,110880
23492961,83719,110912
23502961,83721,110938
23513961,83742,110936
23523961,83728,110932
23533961,83741,110923
23543961,83728,110913
23553961,83722,110886
23563961,83727,110881
23573961,83721,110881
23583961,83725,110883
23593961,83735,110896
23603961,83739,110938
23613961,83763,110958
23623961,83765,110997
23633961,83781,111040
23643961,83774,111086
23653961,83800,111137
23663961,83812,111196
23673961,83823,111242
23683961,83835,111304
23694961,83852,111367
23704961,83864,111410
23714961,83870,111471
23724961,83893,111531
23734961,83889,111586
23744961,83922,111642
23754961,83942,111708
23764961,83955,111747
23774961,83961,111807
23784961,83975,111855
23794961,83991,111890
23804961,84007,111927
23814961,84014,111973
23824961,84018,111993
23834961,84026,112012
23844961,84031,112027
23854961,84043,112053
23864961,84036,112081
23874961,84041,112111
23885961,84058,112134
23895961,84054,112160
23905961,84056,112189
23915961,84071,112229
23925961,84077,112241
23935961,84080,112271
23945961,84088,112303
23955961,84102,112353
23965961,84101,112376
23975961,84116,112345
23985961,84097,112224
23995961,84057,111944
24005961,83983,111640
24015961,83895,111303
24025961,83813,110994
24035961,83727,110736
24045961,83670,110534
24055961,83628,110397
24066961,83588,110322
24076961,83585,110307
24086961,83576,110314
24096961,83583,110373
24106961,83598,110441
24116961,83633,110522
24126961,83656,110620
24136961,83675,110705
24146961,83691,110792
24156961,83727,110870
24166961,83751,110931
24176961,83763,111004
24186961,83774,111058
24196961,83783,111126
24206961,83813,111192
24216961,83823,111235
24226961,83828,111286
24236961,83838,111337
24247961,83858,111362
24257961,83851,111372
24267961,83847,111358
24277961,83843,111360
24287961,83843,111335
24297961,83833,111316
24307961,83823,111302
24317961,83834,111287
24327961,83841,111287
24337961,83841,111287
24347961,83839,111306
24357961,83857,111333
24367961,83858,111365
24377961,83869,111407
24387961,83884,111455
24397961,83903,111502
24407961,83910,111554
24417961,83918,111603
24427961,83931,111661
24438961,83948,111715
24448961,83953,111762
24458961,83960,111849
24468961,83988,111904
24478961,83996,111958
24488961,84018,112011
24498961,84014,112083
24508961,84039,112126
24518961,84054,112177
24528961,84082,112210
24538961,84083,112266
24548961,84098,112305
24558961,84110,112346
24568961,84112,112385
24578961,84131,112410
24588961,84138,112459
24598961,84160,112504
24608961,84152,112527
24619961,84159,112557
24629961,84172,112604
24639961,84169,112616
24649961,84171,112577
24659961,84141,112422
24669961,84103,112135
24679961,84020,111857
24689961,83952,111564
24699961,83874,111319
24709961,83835,111123
24719961,83780,110973
24729961,83757,110891
24739961,83743,110861
24749961,83735,110882
24759961,83737,110909
24769961,83755,110968
24779961,83766,111036
24789961,83787,111127
24800961,83816,111215
24810961,83833,111288
24820961,83853,111377
24830961,83878,111475
24840961,83892,111546
24850961,83918,111622
24860961,83936,111716
24870961,83961,111800
24880961,83985,111879
24890961,83999,111972
24900961,84021,112015
24910961,84044,112032
24920961,84037,112053
24930961,84053,112050
24940961,84042,112020
24950961,84035,111978
24960961,84025,111935
24970961,84005,111889
24980961,83997,111866
24991961,84004,111844
25001961,83986,111840
25011961,83984,111873
25021961,84004,111900
25031961,84006,111923
25041961,84009,111956
25051961,84030,112015
25061961,84043,112066
25071961,84054,112135
25081961,84076,112182
25091961,84085,112237
25101961,84109,112285
25111961,84121,112337
25121961,84137,112395
25131961,84142,112431
25141961,84155,112487
25151961,84172,112530
25161961,84173,112592
25172961,84186,112618
25182961,84203,112689
25192961,84208,112732
25202961,84217,112788
25212961,84236,112803
25222961,84237,112861
25232961,84247,112897
25242961,84265,112951
25252961,84266,112963
25262961,84284,112960
25272961,84268,112844
25282961,84226,112587
25292961,84155,112276
25302961,84072,111989
25312961,84000,111729
25322961,83939,111505
25332961,83890,111344
25342961,83852,111268
25353961,83835,111197
25363961,83820,111190
25373961,83836,111225
25383961,83840,111269
25393961,83840,111341
25403961,83866,111424
25413961,83903,111498
25423961,83908,111598
25433961,83933,111672
25443961,83953,111760
25453961,83991,111840
25463961,84012,111922
25473961,84019,112017
25483961,84048,112108
25493961,84075,112170
25503961,84086,112258
25513961,84106,112301
25523961,84109,112323
25533961,84107,112325
25544961,84120,112331
25554961,84107,112280
25564961,84089,112248
25574961,84090,112192
25584961,84073,112164
25594961,84060,112128
25604961,84058,112128
25614961,84061,112110
25624961,84058,112134
25634961,84064,112143
25644961,84072,112162
25654961,84089,112206
25664961,84093,112241
25674961,84099,112284
25684961,84117,112348
25694961,84128,112394
25704961,84130,112451
25714961,84151,112492
25725961,84159,112535
25735961,84162,112578
25745961,84186,112636
25755961,84193,112685
25765961,84203,112752
25775961,84217,112782
25785961,84229,112830
25795961,84235,112875
25805961,84250,112924
25815961,84260,112975
25825961,84276,113013
25835961,84271,112993
25845961,84272,112870
25855961,84218,112597
25865961,84145,112299
25875961,84064,111970
25885961,83985,111695
25895961,83913,111488
25906961,83869,111320
25916961,83820,111210
25926961,83803,111172
25936961,83796,111159
25946961,83791,111181
25956961,83806,111236
25966961,83819,111307
25976961,83845,111369
25986961,83857,111446
25996961,83880,111523
26006961,83906,111619
26016961,83942,111677
26026961,83946,111751
26036961,83956,111828
26046961,83989,111894
26056961,84000,111977
26066961,84018,112069
26076961,84037,112130
26087961,84049,112179
26097961,84061,112218
26107961,84066,112228
26117961,84062,112218
26127961,84055,112214
26137961,84055,112168
26147961,84042,112110
26157961,84031,112076
26167961,84027,112050
26177961,84023,112030
26187961,84016,112015
26197961,84015,112025
26207961,84018,112039
26217961,84011,112046
26227961,84028,112082
26237961,84032,112110
26247961,84048,112161
26257961,84044,112208
26267961,84074,112261
26278961,84063,112296
26288961,84080,112370
26298961,84096,112421
26308961,84113,112466
26318961,84122,112529
26328961,84141,112586
26338961,84158,112636
26348961,84163,112698
26358961,84176,112746
26368961,84191,112802
26378961,84209,112836
26388961,84225,112830
26398961,84204,112680
26408961,84146,112396
26418961,84063,112083
26428961,83978,111729
26438961,83888,111433
26448961,83815,111206
26459961,83765,111019
26469961,83725,110907
26479961,83692,110846
26489961,83689,110832
26499961,83672,110846
26509961,83690,110894
26519961,83700,110945
26529961,83725,111020
26539961,83744,111096
26549961,83759,111160
26559961,83781,111242
26569961,83810,111296
26579961,83816,111377
26589961,83839,111416
26599961,83854,111479
26609961,83866,111554
26619961,83882,111606
26629961,83887,111658
26639961,83908,111716
26650961,83920,111749
26660961,83914,111778
26670961,83914,111765
26680961,83924,111746
26690961,83905,111727
26700961,83894,111697
26710961,83900,111672
26720961,83892,111662
26730961,83886,111629
26740961,83897,111633
26750961,83891,111617
26760961,83894,111641
26770961,83894,111677
26780961,83905,111696
26790961,83912,111730
26800961,83919,111784
26810961,83941,111816
26820961,83938,111863
26831961,83944,111915
26841961,83968,111965
26851961,83969,112020
26861961,83982,112077
26871961,83999,112131
26881961,84019,112182
26891961,84027,112238
26901961,84046,112294
26911961,84061,112356
26921961,84086,112412
26931961,84089,112451
26941961,84115,112507
26951961,84106,112498
26961961,84110,112405
26971961,84058,112127
26981961,83976,111790
26991961,83885,111428
27001961,83792,111106
27012961,83711,110828
27022961,83652,110600
27032961,83588,110434
27042961,83548,110336
27052961,83531,110313
27062961,83526,110303
27072961,83538,110335
27082961,83548,110386
27092961,83564,110474
27102961,83582,110540
27112961,83607,110612
27122961,83631,110685
27132961,83646,110741
27142961,83659,110806
27152961,83674,110864
27162961,83693,110913
27172961,83696,110958
27182961,83712,111024
27192961,83732,111079
27203961,83744,111148
27213961,83755,111190
27223961,83768,111228
27233961,83771,111255
27243961,83780,111269
27253961,83774,111263
27263961,83771,111250
27273961,83765,111232
27283961,83761,111210
27293961,83767,111181
27303961,83758,111176
27313961,83756,111183
27323961,83769,111194
27333961,83770,111220
27343961,83775,111253
27353961,83786,111281
27363961,83798,111331
27373961,83803,111388
27384961,83814,111421
27394961,83824,111473
27404961,83843,111554
27414961,83851,111601
27424961,83871,111677
27434961,83888,111745
27444961,83899,111793
27454961,83922,111867
27464961,83937,111933
27474961,83962,111988
27484961,83987,112042
27494961,83988,112079
27504961,83996,112145
27514961,84012,112195
27524961,84030,112252
27534961,84044,112275
27544961,84048,112322
27554961,84053,112365
27564961,84072,112392
27575961,84063,112431
27585961,84070,112439
27595961,84069,112330
27605961,84022,112062
27615961,83931,111706
27625961,83845,111334
27635961,83748,111006
27645961,83678,110726
27655961,83607,110476
27665961,83574,110332
27675961,83534,110229
27685961,83518,110199
27695961,83521,110199
27705961,83528,110240
27715961,83542,110308
27725961,83561,110377
27735961,83578,110455
27745961,83591,110555
27756961,83611,110618
27766961,83637,110692
27776961,83665,110768
27786961,83674,110842
27796961,83678,110874
27806961,83702,110927
27816961,83719,110989
27826961,83730,111044
27836961,83739,111092
27846961,83756,111136
27856961,83771,111179
27866961,83780,111195
27876961,83777,111215
27886961,83785,111211
27896961,83775,111200
27906961,83779,111163
27916961,83764,111141
27926961,83760,111132
27936961,83766,111128
27947961,83760,111128
27957961,83761,111139
27967961,83774,111168
27977961,83776,111209
27987961,83780,111225
27997961,83795,111295
28007961,83803,111328
28017961,83811,111395
28027961,83841,111459
28037961,83846,111500
28047961,83880,111548
28057961,83893,111607
28067961,83905,111671
28077961,83917,111726
28087961,83927,111767
28097961,83939,111837
28107961,83958,111889
28117961,83963,111946
28128961,83979,111987
28138961,83992,112031
28148961,84001,112081
28158961,84022,112139
28168961,84025,112186
28178961,84035,112221
28188961,84055,112272
28198961,84067,112307
28208961,84077,112342
28218961,84086,112378
28228961,84088,112404
28238961,84105,112431
28248961,84101,112455
28258961,84107,112492
28268961,84127,112513
28278961,84127,112530
28288961,84131,112574
28298961,84130,112590
28309961,84137,112554
28319961,84116,112403
28329961,84060,112108
28339961,83965,111759
28349961,83870,111395
28359961,83787,111078
28369961,83714,110797
28379961,83646,110599
28389961,83596,110446
28399961,83575,110369
28409961,83570,110343
28419961,83561,110348
28429961,83589,110416
28439961,83590,110488
28449961,83607,110563
28459961,83628,110656
28469961,83657,110736
28479961,83675,110832
28489961,83696,110920
28500961,83722,110985
28510961,83728,111055
28520961,83757,111144
28530961,83781,111225
28540961,83792,111293
28550961,83817,111376
28560961,83834,111434
28570961,83851,111486
28580961,83858,111505
28590961,83887,111528
28600961,83875,111524
28610961,83876,111518
28620961,83879,111503
28630961,83867,111479
28640961,83858,111439
28650961,83852,111431
28660961,83854,111426
28670961,83849,111428
28681961,83847,111450
28691961,83858,111477
28701961,83864,111518
28711961,83872,111551
28721961,83883,111621
28731961,83889,111669
28741961,83914,111719
28751961,83928,111785
28761961,83949,111854
28771961,83971,111920
28781961,83995,111981
28791961,84003,112048
28801961,84018,112103
28811961,84042,112162
28821961,84052,112212
28831961,84076,112270
28841961,84078,112328
28851961,84093,112392
28862961,84105,112441
28872961,84111,112476
28882961,84126,112522
28892961,84130,112571
28902961,84140,112615
28912961,84151,112639
28922961,84173,112689
28932961,84203,112731
28942961,84187,112767
28952961,84201,112798
28962961,84207,112833
28972961,84221,112861
28982961,84224,112901
28992961,84236,112932
29002961,84240,112945
29012961,84237,112972
29022961,84247,113017
29032961,84237,112985
29043961,84228,112859
29053961,84175,112554
29063961,84091,112215
29073961,83994,111871
29083961,83908,111575
29093961,83836,111316
29103961,83788,111143
29113961,83751,111021
29123961,83728,110963
29133961,83711,110925
29143961,83730,110930
29153961,83726,110977
29163961,83746,111037
29173961,83784,111109
29183961,83776,111178
29193961,83808,111266
29203961,83816,111341
29213961,83834,111416
29223961,83853,111514
29234961,83874,111573
29244961,83893,111639
29254961,83903,111718
29264961,83931,111813
29274961,83939,111883
29284961,83965,111934
29294961,83975,111990
29304961,83996,112010
29314961,83987,112012
29324961,84001,112003
29334961,83988,111977
29344961,83984,111941
29354961,83982,111915
29364961,83972,111898
29374961,83967,111870
29384961,83956,111851
29394961,83962,111859
29404961,83966,111872
29415961,83979,111914
29425961,83979,111934
29435961,83973,111973
29445961,83982,112024
29455961,83993,112065
29465961,84032,112118
29475961,84020,112171
29485961,84035,112240
29495961,84049,112282
29505961,84073,112347
29515961,84088,112395
29525961,84094,112448
29535961,84115,112499
29545961,84119,112545
29555961,84134,112597
29565961,84154,112636
29575961,84152,112681
29585961,84159,112728
29596961,84176,112770
29606961,84175,112816
29616961,84182,112845
29626961,84206,112904
29636961,84195,112925
29646961,84208,112962
29656961,84218,112986
29666961,84228,113044
29676961,84241,113065
29686961,84250,113078
29696961,84262,113121
29706961,84278,113149
29716961,84269,113176
29726961,84280,113215
29736961,84282,113236
29746961,84295,113238
29756961,84277,113160
29766961,84242,112915
29777961,84152,112576
29787961,84071,112242
29797961,83974,111927
29807961,83911,111670
29817961,83842,111469
29827961,83818,111337
29837961,83788,111275
29847961,83775,111228
29857961,83773,111254
29867961,83780,111287
29877961,83803,111351
29887961,83815,111427
29897961,83837,111502
29907961,83854,111590
29917961,83877,111701
29927961,83908,111771
29937961,83928,111850
29947961,83944,111950
29957961,83963,112026
29968961,83980,112114
29978961,84000,112199
29988961,84027,112299
29998961,84037,112366
30008961,84060,112427
30018961,84069,112442
30028961,84072,112456
30038961,84069,112426
30048961,84055,112403
30058961,84051,112340
30068961,84048,112268
30078961,84026,112216
30088961,84011,112180
30098961,84012,112153
30108961,83997,112126
30118961,84001,112136
30128961,84002,112159
30138961,83996,112178
30149961,84005,112225
30159961,84020,112253
30169961,84029,112300
30179961,84032,112348
30189961,84052,112407
30199961,84061,112455
30209961,84073,112519
30219961,84079,112575
30229961,84111,112645
30239961,84126,112703
30249961,84144,112758
30259961,84155,112811
30269961,84165,112859
30279961,84180,112918
30289961,84195,112975
30299961,84201,113004
30309961,84221,113053
30319961,84223,113098
30330961,84231,113141
30340961,84237,113187
30350961,84248,113232
30360961,84247,113281
30370961,84262,113297
30380961,84272,113361
30390961,84298,113397
30400961,84287,113387
30410961,84279,113260
30420961,84223,112979
30430961,84146,112625
30440961,84080,112290
30450961,83991,112009
30460961,83915,111784
30470961,83862,111600
30480961,83829,111499
30490961,83812,111428
30500961,83789,111406
30510961,83787,111429
30521961,83803,111466
30531961,83806,111516
30541961,83816,111582
30551961,83856,111681
30561961,83856,111768
30571961,83889,111857
30581961,83909,111945
30591961,83939,112054
30601961,83957,112138
30611961,83983,112240
30621961,84007,112339
30631961,84032,112418
30641961,84059,112520
30651961,84073,112572
30661961,84087,112607
30671961,84090,112637
30681961,84089,112614
30691961,84091,112585
30702961,84062,112525
30712961,84041,112466
30722961,84035,112406
30732961,84017,112340
30742961,84004,112331
30752961,83996,112289
30762961,83997,112282
30772961,83993,112277
30782961,83997,112302
30792961,83995,112327
30802961,84018,112347
30812961,84019,112382
30822961,84032,112437
30832961,84037,112474
30842961,84048,112527
30852961,84069,112578
30862961,84070,112624
30872961,84078,112689
30883961,84087,112727
30893961,84102,112778
30903961,84112,112826
30913961,84136,112893
30923961,84138,112941
30933961,84146,112982
30943961,84170,113043
30953961,84185,113122
30963961,84208,113156
30973961,84218,113217
30983961,84231,113225
30993961,84213,113155
31003961,84186,112900
31013961,84102,112547
31023961,84019,112211
31033961,83934,111903
31043961,83861,111675
31053961,83798,111482
31064961,83762,111355
31074961,83732,111278
31084961,83732,111264
31094961,83712,111268
31104961,83721,111294
31114961,83732,111356
31124961,83747,111418
31134961,83762,111495
31144961,83784,111581
31154961,83815,111668
31164961,83832,111744
31174961,83853,111833
31184961,83870,111917
31194961,83898,112008
31204961,83917,112091
31214961,83940,112176
31224961,83962,112261
31234961,83978,112341
31244961,83990,112382
31255961,84002,112402
31265961,83989,112406
31275961,83994,112394
31285961,83986,112361
31295961,83961,112306
31305961,83955,112257
31315961,83955,112204
31325961,83934,112188
31335961,83928,112154
31345961,83932,112134
31355961,83929,112156
31365961,83932,112167
31375961,83938,112177
31385961,83934,112215
31395961,83953,112259
31405961,83966,112281
31415961,83967,112324
31425961,83971,112371
31436961,83995,112426
31446961,83995,112463
31456961,84005,112535
31466961,84022,112581
31476961,84031,112633
31486961,84039,112683
31496961,84045,112737
31506961,84072,112795
31516961,84077,112847
31526961,84104,112905
31536961,84101,112947
31546961,84128,112973
31556961,84129,112921
31566961,84087,112723
31576961,84034,112388
31586961,83939,112031
31596961,83836,111679
31606961,83765,111383
31616961,83667,111154
31627961,83624,110959
31637961,83587,110841
31647961,83553,110773
31657961,83561,110752
31667961,83554,110767
31677961,83549,110791
31687961,83566,110848
31697961,83583,110926
31707961,83600,111016
31717961,83623,111097
31727961,83654,111171
31737961,83669,111255
31747961,83695,111331
31757961,83711,111399
31767961,83728,111477
31777961,83737,111555
31787961,83765,111646
31797961,83791,111722
31808961,83801,111796
31818961,83818,111848
31828961,83823,111860
31838961,83822,111880
31848961,83831,111879
31858961,83830,111859
31868961,83821,111828
31878961,83812,111785
31888961,83813,111764
31898961,83807,111742
31908961,83811,111733
31918961,83806,111735
31928961,83809,111743
31938961,83809,111767
31948961,83814,111803
31958961,83829,111852
31968961,83845,111887
31978961,83845,111923
31989961,83868,111979
31999961,83864,112026
32009961,83884,112094
32019961,83899,112157
32029961,83912,112211
32039961,83924,112265
32049961,83938,112336
32059961,83956,112389
32069961,83977,112446
32079961,83990,112506
32089961,84008,112566
32099961,84025,112622
32109961,84024,112663
32119961,84045,112718
32129961,84057,112746
32139961,84067,112792
32149961,84066,112848
32159961,84074,112884
32170961,84080,112868
32180961,84070,112728
32190961,84015,112417
32200961,83913,112011
32210961,83809,111617
32220961,83712,111257
32230961,83629,110952
32240961,83551,110721
32250961,83505,110541
32260961,83478,110437
32270961,83461,110368
32280961,83442,110349
32290961,83448,110369
32300961,83445,110420
32310961,83473,110480
32320961,83486,110545
32330961,83499,110624
32340961,83523,110705
32350961,83538,110780
32361961,83558,110856
32371961,83577,110927
32381961,83599,111006
32391961,83610,111090
32401961,83629,111143
32411961,83656,111220
32421961,83681,111291
32431961,83702,111355
32441961,83708,111392
32451961,83730,111425
32461961,83733,111434
32471961,83736,111423
32481961,83725,111411
32491961,83716,111369
32501961,83713,111327
32511961,83690,111301
32521961,83698,111282
32531961,83691,111277
32542961,83682,111274
32552961,83686,111297
32562961,83691,111316
32572961,83685,111346
32582961,83700,111396
32592961,83719,111436
32602961,83728,111474
32612961,83748,111542
32622961,83750,111587
32632961,83784,111645
32642961,83804,111706
32652961,83808,111763
32662961,83828,111824
32672961,83831,111889
32682961,83858,111950
32692961,83872,112013
32702961,83883,112068
32712961,83889,112128
32723961,83911,112178
32733961,83914,112218
32743961,83924,112274
32753961,83943,112344
32763961,83958,112384
32773961,83966,112418
32783961,83980,112451
32793961,83990,112503
32803961,83998,112544
32813961,84010,112578
32823961,84024,112602
32833961,84033,112627
32843961,84025,112648
32853961,84028,112534
32863961,83983,112262
32873961,83890,111861
32883961,83786,111464
32893961,83687,111089
32904961,83600,110764
32914961,83515,110504
32924961,83462,110302
32934961,83416,110177
32944961,83391,110118
32954961,83384,110086
32964961,83393,110130
32974961,83384,110174
32984961,83408,110249
32994961,83427,110325
33004961,83468,110412
33014961,83491,110496
33024961,83510,110591
33034961,83532,110670
33044961,83571,110739
33054961,83584,110811
33064961,83597,110879
33074961,83603,110955
33084961,83620,111043
33095961,83650,111096
33105961,83659,111147
33115961,83680,111191
33125961,83686,111236
33135961,83682,111238
33145961,83692,111217
33155961,83690,111215
33165961,83685,111194
33175961,83677,111158
33185961,83673,111115
33195961,83660,111093
33205961,83670,111084
33215961,83658,111071
33225961,83668,111092
33235961,83671,111101
33245961,83676,111148
33255961,83680,111184
33265961,83702,111228
33276961,83702,111296
33286961,83722,111336
33296961,83734,111400
33306961,83745,111459
33316961,83765,111523
33326961,83790,111597
33336961,83801,111667
33346961,83819,111720
33356961,83837,111804
33366961,83857,111862
33376961,83876,111920
33386961,83896,111986
33396961,83905,112039
33406961,83926,112096
33416961,83936,112162
33426961,83960,112177
33436961,83952,112219
33446961,83965,112255
33457961,83974,112299
33467961,83977,112326
33477961,83982,112361
33487961,83992,112411
33497961,83998,112420
33507961,84001,112454
33517961,84014,112481
33527961,84017,112528
33537961,84027,112532
33547961,84034,112557
33557961,84047,112611
33567961,84052,112622
33577961,84063,112663
33587961,84072,112681
33597961,84078,112713
33607961,84082,112716
33617961,84080,112613
33627961,84035,112337
33637961,83942,111939
33648961,83845,111551
33658961,83725,111158
33668961,83641,110814
33678961,83561,110547
33688961,83504,110341
33698961,83459,110196
33708961,83436,110128
33718961,83415,110111
33728961,83420,110122
33738961,83429,110160
33748961,83446,110228
33758961,83467,110308
33768961,83495,110406
33778961,83516,110501
33788961,83553,110581
33798961,83570,110675
33808961,83586,110770
33818961,83610,110842
33829961,83627,110916
33839961,83647,111002
33849961,83674,111085
33859961,83686,111171
33869961,83707,111226
33879961,83718,111263
33889961,83737,111300
33899961,83736,111297
33909961,83742,111272
33919961,83730,111245
33929961,83729,111199
33939961,83716,111148
33949961,83699,111106
33959961,83695,111098
33969961,83689,111064
33979961,83689,111076
33989961,83697,111091
33999961,83692,111106
34010961,83699,111130
34020961,83701,111176
34030961,83722,111226
34040961,83722,111272
34050961,83751,111336
34060961,83758,111391
34070961,83786,111472
34080961,83795,111554
34090961,83815,111617
34100961,83842,111672
34110961,83869,111751
34120961,83881,111837
34130961,83894,111910
34140961,83926,111983
34150961,83939,112054
34160961,83958,112136
34170961,83973,112203
34180961,83984,112266
34191961,84000,112330
34201961,84026,112399
34211961,84027,112447
34221961,84038,112510
34231961,84047,112554
34241961,84073,112593
34251961,84080,112646
34261961,84093,112707
34271961,84098,112738
34281961,84108,112775
34291961,84140,112809
34301961,84136,112849
34311961,84151,112867
34321961,84154,112895
34331961,84151,112930
34341961,84169,112951
34351961,84184,112994
34361961,84171,113027
34372961,84180,113053
34382961,84187,113084
34392961,84196,113118
34402961,84210,113157
34412961,84209,113099
34422961,84178,112854
34432961,84098,112471
34442961,83992,112046
34452961,83897,111689
34462961,83800,111350
34472961,83735,111061
34482961,83675,110865
34492961,83622,110726
34502961,83590,110650
34512961,83589,110619
34522961,83577,110628
34532961,83602,110672
34542961,83591,110743
34553961,83615,110817
34563961,83642,110902
34573961,83665,111035
34583961,83693,111135
34593961,83715,111233
34603961,83749,111329
34613961,83773,111440
34623961,83794,111547
34633961,83832,111644
34643961,83868,111741
34653961,83882,111825
34663961,83922,111902
34673961,83920,111945
34683961,83924,111987
34693961,83933,111961
34703961,83922,111914
34713961,83918,111878
34723961,83895,111795
34734961,83872,111725
34744961,83856,111682
34754961,83849,111614
34764961,83828,111587
34774961,83820,111579
34784961,83821,111588
34794961,83838,111603
34804961,83835,111645
34814961,83850,111674
34824961,83861,111732
34834961,83881,111791
34844961,83904,111848
34854961,83922,111931
34864961,83932,111993
34874961,83950,112056
34884961,83972,112120
34894961,83982,112201
34904961,84005,112266
34915961,84016,112328
34925961,84016,112392
34935961,84041,112463
34945961,84055,112509
34955961,84053,112575
34965961,84089,112619
34975961,84098,112675
34985961,84111,112746
34995961,84109,112785
35005961,84128,112844
35015961,84153,112874
35025961,84168,112914
35035961,84163,112947
35045961,84178,112986
35055961,84176,113012
35065961,84197,113051
35075961,84207,113087
35085961,84194,113118
35095961,84209,113127
35106961,84211,113045
35116961,84168,112811
35126961,84087,112432
35136961,84004,112073
35146961,83912,111748
35156961,83825,111460
35166961,83765,111227
35176961,83719,111076
35186961,83682,110947
35196961,83663,110886
35206961,83656,110882
35216961,83662,110895
35226961,83667,110966
35236961,83680,111032
35246961,83714,111117
35256961,83722,111211
35266961,83747,111321
35276961,83784,111437
35287961,83801,111532
35297961,83829,111673
35307961,83865,111771
35317961,83883,111916
35327961,83926,112031
35337961,83954,112159
35347961,83987,112258
35357961,84004,112335
35367961,84031,112395
35377961,84038,112418
35387961,84046,112405
35397961,84044,112359
35407961,84024,112311
35417961,84017,112226
35427961,83983,112126
35437961,83958,112074
35447961,83959,112023
35457961,83929,111976
35468961,83927,111962
35478961,83939,111963
35488961,83923,111971
35498961,83923,111999
35508961,83932,112037
35518961,83953,112091
35528961,83961,112142
35538961,83986,112202
35548961,83990,112266
35558961,84013,112319
35568961,84026,112380
35578961,84048,112445
35588961,84067,112494
35598961,84074,112559
35608961,84090,112642
35618961,84105,112690
35628961,84114,112738
35638961,84120,112808
35649961,84126,112857
35659961,84148,112907
35669961,84155,112948
35679961,84174,113013
35689961,84182,113056
35699961,84197,113115
35709961,84211,113131
35719961,84205,113021
35729961,84155,112745
35739961,84075,112332
35749961,83970,111962
35759961,83871,111617
35769961,83804,111340
35779961,83729,111108
35789961,83676,110939
35799961,83636,110828
35809961,83620,110765
35819961,83605,110767
35830961,83612,110772
35840961,83610,110828
35850961,83625,110879
35860961,83643,110969
35870961,83664,111045
35880961,83688,111134
35890961,83705,111229
35900961,83727,111313
35910961,83754,111412
35920961,83781,111506
35930961,83805,111593
35940961,83840,111714
35950961,83851,111787
35960961,83874,111881
35970961,83897,111954
35980961,83905,111978
35990961,83905,111996
36000961,83904,111984
36011961,83904,111939
36021961,83892,111882
36031961,83874,111824
36041961,83855,111768
36051961,83845,111704
36061961,83827,111677
36071961,83831,111641
36081961,83817,111632
36091961,83816,111622
36101961,83812,111641
36111961,83823,111645
36121961,83835,111669
36131961,83833,111709
36141961,83850,111743
36151961,83851,111785
36161961,83872,111840
36171961,83890,111879
36181961,83893,111943
36191961,83892,112001
36202961,83913,112056
36212961,83929,112117
36222961,83940,112186
36232961,83962,112250
36242961,83973,112311
36252961,83995,112371
36262961,84010,112428
36272961,84029,112508
36282961,84040,112557
36292961,84056,112583
36302961,84052,112496
36312961,84021,112245
36322961,83929,111876
36332961,83834,111506
36342961,83749,111133
36352961,83642,110805
36362961,83568,110538
36372961,83500,110350
36383961,83452,110213
36393961,83428,110122
36403961,83415,110125
36413961,83416,110132
36423961,83424,110191
36433961,83433,110245
36443961,83468,110342
36453961,83483,110430
36463961,83505,110525
36473961,83533,110624
36483961,83563,110698
36493961,83584,110785
36503961,83602,110871
36513961,83615,110951
36523961,83646,111041
36533961,83664,111129
36543961,83680,111212
36553961,83703,111263
36564961,83704,111319
36574961,83723,111358
36584961,83727,111352
36594961,83716,111340
36604961,83719,111316
36614961,83715,111271
36624961,83697,111232
36634961,83686,111217
36644961,83672,111184
36654961,83695,111166
36664961,83688,111166
36674961,83693,111180
36684961,83692,111193
36694961,83692,111219
36704961,83712,111262
36714961,83717,111292
36724961,83725,111338
36734961,83726,111394
36745961,83751,111441
36755961,83750,111499
36765961,83768,111582
36775961,83785,111635
36785961,83795,111701
36795961,83818,111770
36805961,83824,111839
36815961,83864,111910
36825961,83875,111978
36835961,83886,112059
36845961,83911,112098
36855961,83931,112168
36865961,83950,112223
36875961,83950,112275
36885961,83969,112314
36895961,83974,112367
36905961,83999,112402
36915961,83996,112450
36925961,84002,112482
36936961,83995,112402
36946961,83959,112163
36956961,83881,111771
36966961,83784,111355
36976961,83670,110951
36986961,83568,110574
36996961,83479,110271
37006961,83409,110031
37016961,83356,109862
37026961,83335,109748
37036961,83305,109714
37046961,83299,109702
37056961,83301,109745
37066961,83316,109814
37076961,83336,109886
37086961,83347,109981
37096961,83375,110084
37106961,83414,110158
37117961,83422,110256
37127961,83450,110334
37137961,83469,110434
37147961,83483,110516
37157961,83501,110594
37167961,83540,110699
37177961,83567,110782
37187961,83578,110856
37197961,83602,110932
37207961,83618,110972
37217961,83634,110994
37227961,83642,111002
37237961,83637,111009
37247961,83633,110969
37257961,83625,110937
37267961,83617,110898
37277961,83613,110870
37287961,83598,110854
37298961,83584,110836
37308961,83603,110848
37318961,83586,110876
37328961,83593,110900
37338961,83609,110937
37348961,83624,110994
37358961,83631,111056
37368961,83649,111105
37378961,83669,111174
37388961,83690,111228
37398961,83712,111297
37408961,83734,111360
37418961,83742,111439
37428961,83756,111505
37438961,83770,111586
37448961,83798,111650
37458961,83809,111736
37468961,83828,111799
37479961,83846,111858
37489961,83856,111926
37499961,83874,111995
37509961,83894,112070
37519961,83903,112126
37529961,83920,112180
37539961,83929,112232
37549961,83951,112280
37559961,83966,112333
37569961,83978,112365
37579961,83983,112400
37589961,84010,112438
37599961,84009,112479
37609961,84021,112516
37619961,84026,112509
37629961,84021,112408
37639961,83967,112093
37649961,83868,111680
37659961,83756,111253
37670961,83652,110867
37680961,83543,110513
37690961,83461,110218
37700961,83397,110003
37710961,83347,109849
37720961,83318,109763
37730961,83313,109735
37740961,83307,109767
37750961,83322,109806
37760961,83346,109882
37770961,83355,109960
37780961,83387,110061
37790961,83407,110157
37800961,83429,110241
37810961,83466,110329
37820961,83482,110422
37830961,83490,110489
37840961,83522,110586
37851961,83538,110663
37861961,83556,110746
37871961,83586,110841
37881961,83595,110917
37891961,83614,110977
37901961,83634,111013
37911961,83636,111035
37921961,83645,111037
37931961,83640,111023
37941961,83636,110991
37951961,83634,110942
37961961,83624,110893
37971961,83605,110876
37981961,83604,110839
37991961,83596,110816
38001961,83595,110834
38011961,83592,110835
38021961,83589,110850
38032961,83594,110878
38042961,83607,110920
38052961,83613,110955
38062961,83621,111008
38072961,83624,111064
38082961,83657,111109
38092961,83665,111174
38102961,83681,111251
38112961,83690,111312
38122961,83724,111374
38132961,83744,111457
38142961,83751,111513
38152961,83772,111577
38162961,83790,111632
38172961,83805,111691
38182961,83825,111739
38192961,83822,111790
38202961,83830,111858
38213961,83859,111908
38223961,83852,111948
38233961,83869,112008
38243961,83886,112042
38253961,83881,112098
38263961,83903,112128
38273961,83925,112166
38283961,83928,112206
38293961,83934,112246
38303961,83954,112267
38313961,83955,112294
38323961,83970,112336
38333961,83973,112368
38343961,83982,112412
38353961,83986,112437
38363961,83995,112445
38373961,83979,112322
38383961,83941,112016
38394961,83837,111626
38404961,83730,111212
38414961,83625,110810
38424961,83526,110459
38434961,83430,110154
38444961,83380,109901
38454961,83318,109746
38464961,83289,109644
38474961,83264,109604
38484961,83267,109610
38494961,83278,109646
38504961,83283,109711
38514961,83301,109801
38524961,83335,109893
38534961,83360,109991
38544961,83381,110084
38554961,83407,110181
38564961,83434,110282
38574961,83450,110359
38585961,83480,110436
38595961,83486,110514
38605961,83510,110591
38615961,83531,110684
38625961,83544,110751
38635961,83565,110806
38645961,83584,110836
38655961,83580,110861
38665961,83587,110841
38675961,83588,110831
38685961,83585,110784
38695961,83569,110732
38705961,83557,110699
38715961,83552,110664
38725961,83542,110618
38735961,83542,110638
38745961,83539,110624
38755961,83533,110637
38766961,83540,110676
38776961,83544,110718
38786961,83563,110770
38796961,83565,110840
38806961,83594,110899
38816961,83607,110960
38826961,83622,111033
38836961,83645,111112
38846961,83669,111184
38856961,83698,111274
38866961,83707,111346
38876961,83735,111421
38886961,83751,111490
38896961,83768,111550
38906961,83772,111610
38916961,83789,111657
38926961,83807,111729
38936961,83814,111800
38947961,83841,111849
38957961,83851,111905
38967961,83864,111954
38977961,83868,112024
38987961,83882,112064
38997961,83896,112123
39007961,83918,112171
39017961,83928,112234
39027961,83941,112270
39037961,83958,112308
39047961,83971,112342
39057961,83986,112387
39067961,83987,112420
39077961,83995,112455
39087961,84005,112453
39097961,84000,112355
39107961,83949,112080
39117961,83871,111697
39127961,83765,111303
39138961,83657,110923
39148961,83569,110602
39158961,83480,110317
39168961,83420,110103
39178961,83378,109951
39188961,83347,109871
39198961,83340,109837
39208961,83339,109876
39218961,83353,109903
39228961,83368,109974
39238961,83391,110070
39248961,83412,110168
39258961,83449,110288
39268961,83473,110388
39278961,83507,110481
39288961,83522,110577
39298961,83540,110693
39308961,83573,110799
39319961,83599,110908
39329961,83620,111018
39339961,83645,111115
39349961,83665,111200
39359961,83692,111256
39369961,83700,111293
39379961,83718,111300
39389961,83704,111291
39399961,83707,111266
39409961,83695,111218
39419961,83694,111174
39429961,83688,111114
39439961,83674,111083
39449961,83660,111048
39459961,83656,111051
39469961,83655,111060
39479961,83662,111067
39489961,83651,111097
39500961,83654,111131
39510961,83679,111177
39520961,83690,111237
39530961,83706,111298
39540961,83715,111360
39550961,83731,111435
39560961,83754,111504
39570961,83778,111579
39580961,83796,111647
39590961,83817,111721
39600961,83831,111788
39610961,83854,111862
39620961,83862,111923
39630961,83879,112000
39640961,83901,112068
39650961,83914,112111
39660961,83927,112185
39670961,83940,112239
39681961,83943,112288
39691961,83948,112348
39701961,83979,112401
39711961,83984,112465
39721961,83995,112529
39731961,84017,112559
39741961,84026,112608
39751961,84040,112645
39761961,84039,112690
39771961,84063,112735
39781961,84077,112788
39791961,84082,112852
39801961,84097,112872
39811961,84102,112803
39821961,84059,112539
39831961,83974,112131
39841961,83866,111698
39851961,83764,111356
39861961,83675,111028
39872961,83589,110762
39882961,83535,110566
39892961,83502,110435
39902961,83470,110380
39912961,83456,110353
39922961,83464,110386
39932961,83475,110429
39942961,83486,110511
39952961,83507,110596
39962961,83542,110697
39972961,83570,110815
39982961,83606,110924
39992961,83625,111039
40002961,83657,111149
40012961,83682,111268
40022961,83714,111411
40032961,83761,111532
40042961,83787,111658
40053961,83799,111771
40063961,83840,111857
40073961,83851,111909
40083961,83848,111933
40093961,83851,111920
40103961,83860,111874
40113961,83833,111812
40123961,83822,111735
40133961,83799,111685
40143961,83796,111607
40153961,83780,111548
40163961,83760,111513
40173961,83758,111487
40183961,83756,111495
40193961,83752,111502
40203961,83763,111516
40213961,83758,111563
40223961,83763,111604
40234961,83793,111664
40244961,83791,111717
40254961,83800,111792
40264961,83826,111857
40274961,83838,111938
40284961,83865,112016
40294961,83883,112081
40304961,83910,112159
40314961,83915,112235
40324961,83947,112296
40334961,83961,112363
40344961,83980,112423
40354961,83993,112502
40364961,84003,112572
40374961,84022,112620
40384961,84041,112679
40394961,84044,112743
40404961,84059,112797
40414961,84068,112852
40425961,84087,112909
40435961,84089,112954
40445961,84104,112965
40455961,84111,112868
40465961,84058,112578
40475961,83964,112180
40485961,83861,111779
40495961,83764,111464
40505961,83688,111167
40515961,83629,110946
40525961,83573,110760
40535961,83539,110641
40545961,83512,110586
40555961,83498,110573
40565961,83510,110592
40575961,83512,110652
40585961,83542,110731
40595961,83555,110813
40606961,83573,110906
40616961,83608,111033
40626961,83626,111146
40636961,83664,111284
40646961,83687,111403
40656961,83728,111535
40666961,83763,111674
40676961,83792,111827
40686961,83819,111955
40696961,83869,112075
40706961,83891,112138
40716961,83909,112187
40726961,83916,112205
40736961,83906,112180
40746961,83893,112117
40756961,83883,112024
40766961,83861,111938
40776961,83838,111871
40787961,83812,111796
40797961,83803,111745
40807961,83789,111724
40817961,83778,111716
40827961,83777,111710
40837961,83775,111745
40847961,83798,111770
40857961,83808,111827
40867961,83819,111887
40877961,83826,111954
40887961,83861,112003
40897961,83871,112064
40907961,83897,112132
40917961,83899,112195
40927961,83917,112261
40937961,83932,112332
40947961,83949,112386
40957961,83953,112444
40967961,83968,112496
40978961,83980,112547
40988961,83991,112600
40998961,83996,112672
41008961,84020,112734
41018961,84035,112810
41028961,84054,112839
41038961,84050,112765
41048961,84025,112512
41058961,83930,112112
41068961,83828,111702
41078961,83728,111343
41088961,83649,111033
41098961,83576,110777
41108961,83501,110576
41118961,83470,110434
41128961,83432,110361
41138961,83410,110327
41148961,83405,110328
41159961,83407,110370
41169961,83424,110430
41179961,83440,110499
41189961,83460,110581
41199961,83477,110674
41209961,83498,110769
41219961,83534,110864
41229961,83558,110964
41239961,83587,111059
41249961,83603,111168
41259961,83640,111268
41269961,83663,111363
41279961,83686,111441
41289961,83707,111491
41299961,83714,111524
41309961,83721,111546
41319961,83724,111535
41329961,83704,111484
41340961,83683,111428
41350961,83680,111370
41360961,83652,111304
41370961,83638,111261
41380961,83633,111217
41390961,83632,111205
41400961,83624,111195
41410961,83625,111207
41420961,83625,111232
41430961,83635,111259
41440961,83645,111310
41450961,83655,111342
41460961,83676,111388
41470961,83676,111445
41480961,83698,111495
41490961,83705,111560
41500961,83720,111601
41510961,83728,111679
41521961,83756,111728
41531961,83757,111781
41541961,83766,111845
41551961,83786,111899
41561961,83800,111961
41571961,83809,112004
41581961,83818,112069
41591961,83833,112116
41601961,83842,112163
41611961,83858,112188
41621961,83866,112145
41631961,83850,111929
41641961,83775,111570
41651961,83659,111187
41661961,83561,110798
41671961,83463,110428
41681961,83378,110121
41691961,83311,109882
41702961,83231,109708
41712961,83198,109599
41722961,83184,109545
41732961,83161,109545
41742961,83167,109585
41752961,83191,109640
41762961,83208,109720
41772961,83223,109801
41782961,83246,109885
41792961,83286,109977
41802961,83302,110074
41812961,83321,110144
41822961,83344,110213
41832961,83365,110297
41842961,83385,110384
41852961,83402,110465
41862961,83429,110539
41872961,83443,110617
41882961,83457,110668
41893961,83468,110700
41903961,83475,110705
41913961,83474,110711
41923961,83467,110684
41933961,83464,110654
41943961,83453,110614
41953961,83453,110582
41963961,83443,110543
41973961,83438,110543
41983961,83439,110539
41993961,83436,110542
42003961,83441,110551
42013961,83444,110582
42023961,83454,110613
42033961,83458,110664
42043961,83475,110707
42053961,83494,110742
42063961,83495,110784
42074961,83501,110841
42084961,83531,110896
42094961,83533,110952
42104961,83542,111008
42114961,83554,111063
42124961,83580,111133
42134961,83581,111175
42144961,83608,111238
42154961,83618,111307
42164961,83649,111371
42174961,83653,111418
42184961,83671,111459
42194961,83680,111517
42204961,83695,111564
42214961,83704,111591
42224961,83715,111634
42234961,83725,111680
42244961,83734,111712
42255961,83739,111698
42265961,83721,111558
42275961,83662,111244
42285961,83565,110871
42295961,83463,110458
42305961,83357,110065
42315961,83266,109728
42325961,83179,109447
42335961,83106,109238
42345961,83071,109107
42355961,83051,109016
42365961,83041,108996
42375961,83035,109016
42385961,83053,109067
42395961,83071,109133
42405961,83086,109220
42415961,83098,109306
42425961,83124,109384
42435961,83144,109466
42446961,83157,109535
42456961,83178,109595
42466961,83201,109661
42476961,83209,109727
42486961,83218,109780
42496961,83243,109884
42506961,83279,109950
42516961,83300,110034
42526961,83317,110078
42536961,83334,110132
42546961,83341,110136
42556961,83351,110148
42566961,83347,110131
42576961,83341,110114
42586961,83332,110078
42596961,83329,110074
42606961,83323,110051
42616961,83321,110048
42627961,83314,110049
42637961,83318,110060
42647961,83322,110094
42657961,83322,110136
42667961,83343,110184
42677961,83352,110235
42687961,83382,110308
42697961,83400,110384
42707961,83425,110446
42717961,83432,110534
42727961,83465,110599
42737961,83474,110672
42747961,83495,110748
42757961,83511,110817
42767961,83537,110899
42777961,83552,110955
42787961,83557,111017
42797961,83575,111091
42808961,83600,111158
42818961,83611,111204
42828961,83620,111272
42838961,83639,111321
42848961,83647,111369
42858961,83662,111425
42868961,83666,111449
42878961,83694,111497
42888961,83699,111548
42898961,83723,111575
42908961,83720,111628
42918961,83736,111666
42928961,83741,111700
42938961,83760,111745
42948961,83766,111768
42958961,83775,111803
42968961,83776,111845
42978961,83780,111880
42989961,83794,111906
42999961,83806,111942
43009961,83816,111984
43019961,83826,112045
43029961,83836,112084
43039961,83838,112063
43049961,83837,111903
43059961,83766,111590
43069961,83673,111195
43079961,83567,110770
43089961,83461,110357
43099961,83371,110012
43109961,83279,109721
43119961,83215,109483
43129961,83164,109329
43139961,83135,109242
43149961,83116,109214
43159961,83104,109224
43169961,83117,109297
43180961,83136,109355
43190961,83155,109443
43200961,83178,109546
43210961,83197,109633
43220961,83225,109719
43230961,83249,109807
43240961,83273,109896
43250961,83272,109964
43260961,83316,110028
43270961,83323,110089
43280961,83352,110153
43290961,83366,110211
43300961,83376,110264
43310961,83391,110300
43320961,83395,110324
43330961,83406,110316
43340961,83399,110320
43350961,83395,110295
43361961,83395,110249
43371961,83374,110205
43381961,83358,110195
43391961,83350,110166
43401961,83344,110158
43411961,83353,110157
43421961,83361,110171
43431961,83363,110193
43441961,83370,110226
43451961,83380,110267
43461961,83397,110307
43471961,83403,110346
43481961,83429,110418
43491961,83425,110467
43501961,83462,110518
43511961,83462,110584
43521961,83487,110658
43531961,83496,110732
43542961,83508,110789
43552961,83530,110858
43562961,83544,110931
43572961,83549,110996
43582961,83564,111044
43592961,83588,111099
43602961,83603,111157
43612961,83607,111209
43622961,83636,111265
43632961,83639,111304
43642961,83662,111331
43652961,83655,111373
43662961,83674,111400
43672961,83683,111435
43682961,83692,111479
43692961,83700,111493
43702961,83702,111509
43712961,83700,111543
43723961,83715,111566
43733961,83710,111583
43743961,83717,111607
43753961,83734,111647
43763961,83735,111677
43773961,83742,111700
43783961,83760,111730
43793961,83757,111777
43803961,83762,111795
43813961,83785,111842
43823961,83794,111838
43833961,83789,111778
43843961,83755,111536
43853961,83679,111189
43863961,83575,110775
43873961,83467,110364
43883961,83363,110006
43893961,83269,109670
43904961,83190,109425
43914961,83131,109266
43924961,83093,109152
43934961,83077,109115
43944961,83076,109126
43954961,83077,109176
43964961,83111,109260
43974961,83124,109351
43984961,83154,109463
43994961,83180,109566
44004961,83218,109651
44014961,83234,109738
44024961,83252,109833
44034961,83284,109921
44044961,83298,109986
44054961,83336,110075
44064961,83350,110129
44074961,83365,110197
44084961,83375,110243
44095961,83395,110289
44105961,83390,110310
44115961,83398,110315
44125961,83409,110316
44135961,83398,110287
44145961,83384,110251
44155961,83376,110227
44165961,83373,110196
44175961,83371,110180
44185961,83367,110161
44195961,83363,110169
44205961,83372,110176
44215961,83367,110199
44225961,83377,110240
44235961,83392,110262
44245961,83400,110315
44255961,83411,110389
44265961,83427,110434
44276961,83455,110503
44286961,83459,110564
44296961,83487,110644
44306961,83495,110714
44316961,83517,110786
44326961,83530,110835
44336961,83548,110904
44346961,83565,110971
44356961,83581,111047
44366961,83606,111097
44376961,83617,111150
44386961,83636,111206
44396961,83650,111260
44406961,83656,111321
44416961,83679,111370
44426961,83690,111427
44436961,83700,111471
44446961,83713,111514
44457961,83723,111564
44467961,83731,111622
44477961,83743,111665
44487961,83749,111698
44497961,83764,111747
44507961,83772,111787
44517961,83794,111827
44527961,83794,111877
44537961,83815,111919
44547961,83821,111952
44557961,83846,111992
44567961,83851,112026
44577961,83857,112073
44587961,83866,112115
44597961,83875,112156
44607961,83891,112219
44617961,83905,112199
44627961,83895,112090
44638961,83836,111803
44648961,83746,111388
44658961,83632,110988
44668961,83532,110601
44678961,83433,110241
44688961,83349,109948
44698961,83294,109752
44708961,83240,109591
44718961,83205,109526
44728961,83212,109489
44738961,83214,109511
44748961,83218,109578
44758961,83241,109669
44768961,83258,109753
44778961,83291,109865
44788961,83319,109957
44798961,83346,110072
44808961,83362,110176
44819961,83399,110295
44829961,83420,110392
44839961,83438,110497
44849961,83483,110611
44859961,83501,110716
44869961,83531,110795
44879961,83545,110885
44889961,83568,110927
44899961,83581,110947
44909961,83594,110952
44919961,83579,110898
44929961,83572,110859
44939961,83558,110788
44949961,83531,110730
44959961,83514,110664
44969961,83508,110626
44979961,83496,110581
44989961,83479,110574
45000961,83492,110583
45010961,83483,110601
45020961,83487,110649
45030961,83502,110691
45040961,83515,110740
45050961,83521,110815
45060961,83547,110887
45070961,83576,110960
45080961,83592,111034
45090961,83620,111118
45100961,83637,111205
45110961,83671,111281
45120961,83680,111359
45130961,83702,111445
45140961,83721,111513
45150961,83732,111581
45160961,83755,111662
45170961,83776,111720
45181961,83777,111779
45191961,83788,111822
45201961,83813,111882
45211961,83812,111941
45221961,83827,111994
45231961,83849,112050
45241961,83867,112106
45251961,83877,112171
45261961,83885,112216
45271961,83901,112263
45281961,83917,112306
45291961,83935,112348
45301961,83940,112383
45311961,83943,112360
45321961,83933,112196
45331961,83858,111855
45341961,83774,111435
45351961,83653,111047
45361961,83563,110672
45372961,83462,110366
45382961,83388,110100
45392961,83330,109923
45402961,83295,109802
45412961,83262,109768
45422961,83271,109769
45432961,83277,109819
45442961,83296,109894
45452961,83320,109993
45462961,83344,110091
45472961,83383,110208
45482961,83417,110309
45492961,83444,110436
45502961,83466,110546
45512961,83497,110671
45522961,83535,110798
45532961,83558,110916
45542961,83595,111039
45553961,83618,111165
45563961,83645,111238
45573961,83659,111305
45583961,83672,111345
45593961,83676,111359
45603961,83684,111328
45613961,83668,111268
45623961,83654,111200
45633961,83625,111112
45643961,83609,111033
45653961,83600,110967
45663961,83582,110926
45673961,83577,110899
45683961,83571,110873
45693961,83570,110892
45703961,83568,110914
45713961,83573,110950
45723961,83584,110992
45734961,83601,111024
45744961,83613,111109
45754961,83623,111165
45764961,83657,111239
45774961,83668,111320
45784961,83681,111388
45794961,83711,111476
45804961,83732,111557
45814961,83750,111616
45824961,83767,111698
45834961,83790,111752
45844961,83806,111825
45854961,83817,111895
45864961,83838,111955
45874961,83852,112018
45884961,83858,112075
45894961,83883,112160
45904961,83903,112208
45915961,83905,112174
45925961,83882,112014
45935961,83830,111679
45945961,83710,111275
45955961,83607,110897
45965961,83511,110552
45975961,83438,110254
45985961,83357,110026
45995961,83309,109867
46005961,83277,109763
46015961,83262,109708
46025961,83267,109706
46035961,83261,109761
46045961,83291,109828
46055961,83305,109918
46065961,83335,110024
46075961,83371,110130
46085961,83383,110224
46095961,83408,110337
46106961,83450,110467
46116961,83474,110572
46126961,83504,110716
46136961,83544,110846
46146961,83571,110978
46156961,83602,111085
46166961,83640,111192
46176961,83657,111260
46186961,83668,111289
46196961,83684,111302
46206961,83682,111276
46216961,83669,111228
46226961,83648,111145
46236961,83627,111092
46246961,83614,111002
46256961,83600,110957
46266961,83580,110935
46276961,83578,110922
46287961,83571,110904
46297961,83563,110925
46307961,83576,110938
46317961,83578,110985
46327961,83586,111034
46337961,83619,111089
46347961,83631,111154
46357961,83642,111239
46367961,83678,111310
46377961,83699,111385
46387961,83717,111457
46397961,83744,111540
46407961,83750,111599
46417961,83766,111661
46427961,83785,111714
46437961,83800,111780
46447961,83814,111833
46457961,83825,111885
46468961,83836,111910
46478961,83827,111856
46488961,83794,111656
46498961,83712,111276
46508961,83606,110884
46518961,83507,110478
46528961,83407,110138
46538961,83327,109821
46548961,83257,109582
46558961,83199,109416
46568961,83163,109310
46578961,83148,109269
46588961,83139,109275
46598961,83149,109318
46608961,83162,109367
46618961,83183,109468
46628961,83213,109547
46638961,83229,109656
46648961,83259,109768
46659961,83285,109857
46669961,83310,109957
46679961,83342,110058
46689961,83359,110165
46699961,83382,110270
46709961,83413,110381
46719961,83449,110483
46729961,83463,110557
46739961,83489,110612
46749961,83494,110637
46759961,83512,110636
46769961,83497,110618
46779961,83490,110569
46789961,83475,110507
46799961,83462,110460
46809961,83455,110395
46819961,83432,110365
46829961,83422,110337
46840961,83415,110323
46850961,83414,110322
46860961,83417,110342
46870961,83422,110363
46880961,83433,110406
46890961,83438,110448
46900961,83454,110499
46910961,83464,110569
46920961,83491,110623
46930961,83499,110687
46940961,83521,110744
46950961,83542,110819
46960961,83554,110890
46970961,83578,110944
46980961,83591,111008
46990961,83606,111077
47000961,83621,111134
47010961,83629,111189
47020961,83642,111249
47031961,83661,111243
47041961,83639,111110
47051961,83573,110796
47061961,83494,110413
47071961,83375,110000
47081961,83271,109588
47091961,83172,109248
47101961,83085,108978
47111961,83018,108797
47121961,82992,108665
47131961,82958,108604
47141961,82965,108590
47151961,82961,108646
47161961,82984,108705
47171961,83003,108774
47181961,83026,108881
47191961,83050,108976
47201961,83065,109070
47212961,83097,109169
47222961,83119,109249
47232961,83136,109339
47242961,83165,109433
47252961,83189,109510
47262961,83211,109609
47272961,83237,109710
47282961,83269,109782
47292961,83281,109858
47302961,83316,109916
47312961,83323,109940
47322961,83331,109939
47332961,83323,109921
47342961,83317,109899
47352961,83317,109856
47362961,83301,109812
47372961,83281,109774
47382961,83284,109747
47393961,83279,109743
47403961,83269,109753
47413961,83278,109768
47423961,83279,109810
47433961,83285,109866
47443961,83312,109920
47453961,83333,109969
47463961,83352,110047
47473961,83350,110110
47483961,83386,110186
47493961,83415,110246
47503961,83429,110317
47513961,83449,110388
47523961,83463,110463
47533961,83487,110535
47543961,83510,110587
47553961,83512,110642
47563961,83527,110712
47573961,83550,110766
47584961,83558,110818
47594961,83568,110869
47604961,83592,110916
47614961,83600,110987
47624961,83614,111029
47634961,83626,111004
47644961,83605,110829
47654961,83538,110490
47664961,83425,110064
47674961,83309,109603
47684961,83199,109169
47694961,83093,108801
47704961,82992,108513
47714961,82939,108310
47724961,82897,108212
47734961,82882,108155
47744961,82872,108166
47754961,82881,108225
47765961,82897,108304
47775961,82915,108400
47785961,82944,108511
47795961,82981,108625
47805961,83005,108722
47815961,83035,108833
47825961,83071,108906
47835961,83094,108994
47845961,83114,109072
47855961,83136,109157
47865961,83158,109241
47875961,83188,109313
47885961,83213,109384
47895961,83232,109453
47905961,83255,109498
47915961,83254,109528
47925961,83265,109555
47935961,83264,109547
47946961,83260,109520
47956961,83249,109517
47966961,83248,109487
47976961,83231,109466
47986961,83225,109447
47996961,83230,109455
48006961,83243,109475
48016961,83243,109511
48026961,83269,109546
48036961,83277,109602
48046961,83282,109662
48056961,83323,109710
48066961,83330,109783
48076961,83341,109850
48086961,83367,109926
48096961,83387,109995
48106961,83410,110082
48116961,83429,110159
48126961,83444,110229
48137961,83475,110316
48147961,83486,110389
48157961,83511,110472
48167961,83520,110545
48177961,83556,110616
48187961,83573,110690
48197961,83586,110768
48207961,83602,110824
48217961,83632,110885
48227961,83654,110928
48237961,83659,110972
48247961,83670,111013
48257961,83685,111053
48267961,83687,111077
48277961,83694,111111
48287961,83708,111134
48297961,83708,111170
48307961,83713,111191
48318961,83727,111214
48328961,83722,111228
48338961,83736,111268
48348961,83733,111293
48358961,83749,111311
48368961,83757,111352
48378961,83758,111346
48388961,83748,111255
48398961,83715,110991
48408961,83628,110605
48418961,83519,110171
48428961,83405,109738
48438961,83284,109347
48448961,83197,109008
48458961,83109,108765
48468961,83062,108623
48478961,83042,108528
48488961,83010,108509
48499961,83016,108540
48509961,83035,108595
48519961,83045,108685
48529961,83064,108802
48539961,83109,108891
48549961,83133,108999
48559961,83152,109090
48569961,83179,109180
48579961,83208,109260
48589961,83237,109326
48599961,83246,109400
48609961,83273,109446
48619961,83293,109510
48629961,83296,109569
48639961,83317,109624
48649961,83334,109645
48659961,83340,109694
48669961,83341,109706
48680961,83346,109700
48690961,83337,109693
48700961,83329,109665
48710961,83319,109645
48720961,83313,109624
48730961,83303,109598
48740961,83318,109586
48750961,83306,109579
48760961,83315,109615
48770961,83316,109637
48780961,83341,109662
48790961,83354,109702
48800961,83361,109767
48810961,83379,109813
48820961,83390,109883
48830961,83409,109955
48840961,83432,110015
48850961,83430,110080
48860961,83457,110148
48871961,83473,110197
48881961,83483,110257
48891961,83489,110325
48901961,83537,110402
48911961,83537,110465
48921961,83554,110519
48931961,83572,110585
48941961,83599,110664
48951961,83606,110710
48961961,83641,110761
48971961,83639,110812
48981961,83656,110844
48991961,83668,110893
49001961,83678,110926
49011961,83686,110951
49021961,83691,110986
49031961,83694,111032
49041961,83719,111061
49052961,83718,111095
49062961,83723,111123
49072961,83738,111171
49082961,83744,111209
49092961,83746,111232
49102961,83771,111269
49112961,83756,111294
49122961,83773,111340
49132961,83790,111393
49142961,83800,111419
49152961,83824,111457
49162961,83840,111498
49172961,83845,111555
49182961,83854,111568
49192961,83852,111522
49202961,83838,111328
49212961,83754,110985
49222961,83659,110593
49233961,83542,110196
49243961,83448,109835
49253961,83352,109528
49263961,83270,109299
49273961,83223,109136
49283961,83199,109046
49293961,83181,109032
49303961,83185,109051
49313961,83186,109121
49323961,83223,109203
49333961,83249,109298
49343961,83270,109386
49353961,83296,109482
49363961,83318,109582
49373961,83348,109663
49383961,83377,109745
49393961,83396,109813
49403961,83401,109869
49414961,83421,109953
49424961,83430,110005
49434961,83449,110073
49444961,83477,110144
49454961,83482,110200
49464961,83503,110230
49474961,83514,110244
49484961,83518,110241
49494961,83510,110219
49504961,83503,110184
49514961,83504,110150
49524961,83483,110109
49534961,83479,110092
49544961,83486,110078
49554961,83475,110077
49564961,83484,110070
49574961,83486,110115
49584961,83497,110131
49595961,83500,110170
49605961,83497,110221
49615961,83519,110276
49625961,83531,110333
49635961,83544,110393
49645961,83568,110442
49655961,83592,110508
49665961,83597,110571
49675961,83608,110646
49685961,83635,110704
49695961,83657,110748
49705961,83682,110810
49715961,83687,110882
49725961,83701,110939
49735961,83717,110995
49745961,83728,111046
49755961,83740,111095
49765961,83754,111140
49775961,83754,111184
49786961,83784,111225
49796961,83781,111258
49806961,83782,111298
49816961,83800,111344
49826961,83803,111358
49836961,83809,111397
49846961,83818,111432
49856961,83843,111467
49866961,83846,111511
49876961,83859,111531
49886961,83863,111560
49896961,83878,111581
49906961,83885,111617
49916961,83883,111646
49926961,83895,111662
49936961,83898,111699
49946961,83904,111733
49956961,83918,111771
49967961,83912,111797
49977961,83924,111803
49987961,83912,111685
49997961,83865,111426
50007961,83777,111081
50017961,83705,110720
50027961,83600,110387
50037961,83524,110091
50047961,83447,109841
50057961,83388,109651
50067961,83367,109540
50077961,83347,109482
50087961,83323,109477
50097961,83339,109513
50107961,83337,109571
50117961,83364,109645
50127961,83377,109723
50137961,83407,109831
50148961,83434,109905
50158961,83448,109999
50168961,83478,110109
50178961,83500,110182
50188961,83512,110262
50198961,83532,110341
50208961,83569,110415
50218961,83588,110494
50228961,83606,110575
50238961,83629,110630
50248961,83636,110656
50258961,83650,110668
50268961,83638,110664
50278961,83642,110640
50288961,83629,110579
50298961,83621,110537
50308961,83607,110512
50318961,83593,110462
50329961,83583,110440
50339961,83583,110442
50349961,83587,110431
50359961,83579,110459
50369961,83584,110480
50379961,83594,110524
50389961,83625,110566
50399961,83625,110634
50409961,83642,110681
50419961,83656,110730
50429961,83675,110784
50439961,83699,110845
50449961,83704,110908
50459961,83724,110967
50469961,83737,111009
50479961,83752,111093
50489961,83767,111128
50499961,83772,111189
50509961,83787,111248
50520961,83809,111292
50530961,83810,111325
50540961,83826,111385
50550961,83851,111436
50560961,83845,111473
50570961,83867,111527
50580961,83873,111572
50590961,83885,111628
50600961,83899,111656
50610961,83909,111695
50620961,83921,111722
50630961,83929,111749
50640961,83939,111769
50650961,83937,111808
50660961,83947,111815
50670961,83946,111827
50680961,83951,111866
50690961,83965,111883
50701961,83957,111907
50711961,83979,111945
50721961,83972,111961
50731961,83970,111971
50741961,83965,111875
50751961,83927,111640
50761961,83852,111319
50771961,83773,110997
50781961,83688,110673
50791961,83614,110402
50801961,83560,110184
50811961,83504,110037
50821961,83487,109940
50831961,83458,109894
50841961,83458,109906
50851961,83470,109922
50861961,83472,109990
50871961,83481,110063
50882961,83514,110153
50892961,83527,110263
50902961,83556,110352
50912961,83589,110450
50922961,83608,110543
50932961,83635,110636
50942961,83662,110722
50952961,83681,110815
50962961,83701,110913
50972961,83729,111002
50982961,83753,111062
50992961,83772,111113
51002961,83782,111140
51012961,83780,111147
51022961,83791,111123
51032961,83779,111087
51042961,83761,111035
51052961,83743,110980
51062961,83724,110918
51073961,83700,110872
51083961,83701,110840
51093961,83696,110816
51103961,83698,110831
51113961,83695,110827
51123961,83701,110848
51133961,83707,110891
51143961,83725,110918
51153961,83727,110980
51163961,83749,111030
51173961,83767,111087
51183961,83784,111153
51193961,83799,111204
51203961,83815,111258
51213961,83826,111321
51223961,83834,111366
51233961,83849,111430
51243961,83858,111477
51254961,83869,111509
51264961,83879,111557
51274961,83890,111614
51284961,83902,111663
51294961,83914,111710
51304961,83928,111757
51314961,83944,111808
51324961,83959,111849
51334961,83965,111909
51344961,83970,111921
51354961,83996,111971
51364961,84002,112007
51374961,84006,112043
51384961,84010,112018
51394961,84004,111894
51404961,83967,111652
51414961,83886,111340
51424961,83789,111012
51435961,83712,110734
51445961,83649,110485
51455961,83578,110295
51465961,83532,110172
51475961,83510,110089
51485961,83502,110054
51495961,83498,110073
51505961,83503,110093
51515961,83503,110176
51525961,83537,110246
51535961,83562,110328
51545961,83584,110417
51555961,83621,110531
51565961,83637,110609
51575961,83666,110712
51585961,83685,110803
51595961,83711,110908
51605961,83735,111007
51616961,83771,111097
51626961,83770,111195
51636961,83804,111261
51646961,83807,111317
51656961,83818,111321
51666961,83831,111343
51676961,83824,111302
51686961,83820,111278
51696961,83811,111232
51706961,83809,111177
51716961,83787,111136
51726961,83786,111093
51736961,83769,111061
51746961,83751,111053
51756961,83763,111057
51766961,83766,111050
51776961,83764,111073
51786961,83772,111099
51797961,83777,111153
51807961,83789,111197
51817961,83793,111235
51827961,83809,111290
51837961,83822,111357
51847961,83836,111396
51857961,83847,111443
51867961,83860,111516
51877961,83877,111556
51887961,83899,111623
51897961,83912,111662
51907961,83933,111706
51917961,83939,111761
51927961,83946,111815
51937961,83955,111857
51947961,83974,111911
51957961,83991,111954
51967961,83979,111968
51977961,83989,111927
51988961,83959,111728
51998961,83888,111410
52008961,83787,111079
52018961,83722,110758
52028961,83626,110459
52038961,83556,110218
52048961,83498,110050
52058961,83470,109926
52068961,83440,109853
52078961,83445,109828
52088961,83434,109835
52098961,83447,109882
52108961,83459,109932
52118961,83472,110009
52128961,83496,110068
52138961,83510,110157
52148961,83525,110246
52158961,83562,110314
52169961,83570,110388
52179961,83583,110470
52189961,83611,110538
52199961,83618,110632
52209961,83647,110719
52219961,83670,110784
52229961,83687,110844
52239961,83696,110887
52249961,83705,110915
52259961,83722,110910
52269961,83709,110876
52279961,83705,110841
52289961,83694,110794
52299961,83684,110733
52309961,83672,110689
52319961,83668,110657
52329961,83653,110645
52339961,83659,110638
52350961,83646,110650
52360961,83651,110674
52370961,83646,110698
52380961,83660,110744
52390961,83677,110791
52400961,83690,110831
52410961,83691,110890
52420961,83712,110948
52430961,83733,111011
52440961,83751,111058
52450961,83764,111110
52460961,83781,111165
52470961,83801,111219
52480961,83803,111271
52490961,83820,111324
52500961,83834,111371
52510961,83844,111429
52520961,83851,111476
52531961,83870,111500
52541961,83872,111479
52551961,83847,111338
52561961,83796,111046
52571961,83703,110698
52581961,83615,110335
52591961,83521,110000
52601961,83442,109692
52611961,83367,109467
52621961,83314,109302
52631961,83289,109204
52641961,83277,109158
52651961,83262,109162
52661961,83286,109209
52671961,83282,109256
52681961,83307,109313
52691961,83325,109404
52701961,83345,109466
52712961,83369,109550
52722961,83378,109633
52732961,83406,109689
52742961,83407,109751
52752961,83429,109816
52762961,83442,109894
52772961,83479,109965
52782961,83492,110058
52792961,83517,110140
52802961,83523,110193
52812961,83544,110221
52822961,83557,110243
52832961,83562,110255
52842961,83568,110234
52852961,83556,110203
52862961,83561,110182
52872961,83553,110139
52882961,83538,110115
52892961,83531,110107
52903961,83535,110096
52913961,83525,110103
52923961,83525,110128
52933961,83537,110162
52943961,83549,110204
52953961,83565,110246
52963961,83577,110296
52973961,83580,110345
52983961,83604,110396
52993961,83629,110446
53003961,83636,110491
53013961,83655,110551
53023961,83665,110602
53033961,83681,110657
53043961,83699,110696
53053961,83706,110752
53063961,83717,110805
53073961,83733,110862
53084961,83742,110894
53094961,83750,110961
53104961,83766,110994
53114961,83778,111041
53124961,83782,111061
53134961,83794,111012
53144961,83762,110806
53154961,83697,110492
53164961,83600,110110
53174961,83500,109714
53184961,83398,109337
53194961,83315,109028
53204961,83251,108804
53214961,83189,108653
53224961,83178,108575
53234961,83147,108555
53244961,83151,108590
53254961,83173,108636
53265961,83187,108702
53275961,83199,108782
53285961,83232,108866
53295961,83239,108967
53305961,83269,109025
53315961,83290,109088
53325961,83308,109144
53335961,83324,109210
53345961,83338,109248
53355961,83357,109329
53365961,83379,109388
53375961,83401,109468
53385961,83408,109521
53395961,83426,109555
53405961,83436,109576
53415961,83449,109599
53425961,83446,109584
53435961,83438,109571
53446961,83425,109541
53456961,83427,109516
53466961,83415,109503
53476961,83415,109501
53486961,83411,109493
53496961,83438,109505
53506961,83433,109532
53516961,83449,109581
53526961,83444,109645
53536961,83478,109686
53546961,83492,109742
53556961,83518,109814
53566961,83543,109876
53576961,83562,109948
53586961,83585,110034
53596961,83600,110085
53606961,83616,110145
53616961,83630,110223
53627961,83642,110281
53637961,83668,110350
53647961,83681,110398
53657961,83707,110474
53667961,83704,110535
53677961,83725,110581
53687961,83751,110646
53697961,83762,110677
53707961,83776,110730
53717961,83790,110775
53727961,83801,110802
53737961,83809,110845
53747961,83826,110873
53757961,83832,110873
53767961,83823,110741
53777961,83767,110471
53787961,83677,110130
53797961,83592,109712
53808961,83467,109306
53818961,83367,108958
53828961,83295,108684
53838961,83227,108505
53848961,83186,108395
53858961,83169,108366
53868961,83179,108370
53878961,83178,108451
53888961,83207,108530
53898961,83227,108628
53908961,83274,108711
53918961,83301,108815
53928961,83319,108913
53938961,83346,109000
53948961,83368,109070
53958961,83392,109141
53968961,83413,109193
53978961,83413,109251
53988961,83430,109335
53999961,83452,109389
54009961,83470,109456
54019961,83487,109507
54029961,83514,109549
54039961,83518,109573
54049961,83512,109576
54059961,83526,109558
54069961,83516,109542
54079961,83519,109521
54089961,83507,109488
54099961,83514,109479
54109961,83504,109473
54119961,83512,109487
54129961,83519,109513
54139961,83529,109525
54149961,83531,109573
54159961,83546,109622
54169961,83565,109674
54180961,83576,109721
54190961,83582,109810
54200961,83624,109850
54210961,83618,109923
54220961,83650,109984
54230961,83663,110054
54240961,83684,110117
54250961,83703,110186
54260961,83727,110248
54270961,83734,110291
54280961,83754,110341
54290961,83772,110382
54300961,83785,110445
54310961,83800,110462
54320961,83801,110493
54330961,83821,110553
54340961,83834,110583
54350961,83827,110620
54361961,83846,110669
54371961,83856,110702
54381961,83855,110722
54391961,83852,110679
54401961,83829,110497
54411961,83776,110188
54421961,83680,109841
54431961,83574,109474
54441961,83495,109136
54451961,83422,108875
54461961,83361,108677
54471961,83311,108591
54481961,83303,108534
54491961,83291,108560
54501961,83305,108604
54511961,83332,108685
54521961,83348,108768
54531961,83369,108890
54542961,83405,108977
54552961,83432,109087
54562961,83471,109165
54572961,83484,109264
54582961,83501,109345
54592961,83526,109428
54602961,83560,109516
54612961,83573,109581
54622961,83602,109664
54632961,83625,109748
54642961,83648,109788
54652961,83651,109822
54662961,83661,109845
54672961,83664,109848
54682961,83662,109827
54692961,83658,109811
54702961,83653,109765
54712961,83634,109732
54722961,83629,109721
54733961,83631,109712
54743961,83622,109719
54753961,83632,109747
54763961,83648,109782
54773961,83650,109826
54783961,83668,109879
54793961,83686,109939
54803961,83699,109998
54813961,83714,110067
54823961,83746,110121
54833961,83766,110183
54843961,83785,110238
54853961,83799,110301
54863961,83807,110326
54873961,83826,110385
54883961,83836,110427
54893961,83854,110481
54903961,83861,110527
54914961,83868,110607
54924961,83893,110655
54934961,83898,110722
54944961,83914,110781
54954961,83937,110835
54964961,83952,110897
54974961,83953,110878
54984961,83955,110773
54994961,83915,110527
55004961,83845,110213
55014961,83746,109883
55024961,83664,109571
55034961,83586,109329
55044961,83530,109159
55054961,83499,109062
55064961,83486,109019
55074961,83477,109058
55084961,83489,109097
55095961,83506,109178
55105961,83535,109281
55115961,83562,109376
55125961,83587,109478
55135961,83603,109583
55145961,83635,109678
55155961,83666,109772
55165961,83686,109856
55175961,83720,109933
55185961,83738,110025
55195961,83772,110102
55205961,83792,110176
55215961,83826,110261
55225961,83832,110303
55235961,83832,110330
55245961,83846,110321
55255961,83849,110307
55265961,83819,110265
55275961,83820,110237
55286961,83814,110203
55296961,83794,110151
55306961,83783,110145
55316961,83803,110147
55326961,83795,110159
55336961,83795,110183
55346961,83809,110218
55356961,83827,110267
55366961,83834,110313
55376961,83852,110361
55386961,83869,110428
55396961,83895,110488
55406961,83910,110530
55416961,83922,110607
55426961,83937,110653
55436961,83950,110722
55446961,83957,110787
55456961,83987,110838
55467961,83998,110909
55477961,84015,110957
55487961,84028,111016
55497961,84035,111081
55507961,84049,111140
55517961,84067,111191
55527961,84087,111193
55537961,84074,111105
55547961,84042,110888
55557961,83960,110593
55567961,83895,110281
55577961,83815,109987
55587961,83735,109740
55597961,83681,109573
55607961,83643,109482
55617961,83628,109431
55627961,83613,109441
55637961,83623,109504
55648961,83651,109581
55658961,83667,109663
55668961,83693,109779
55678961,83729,109892
55688961,83754,109983
55698961,83781,110082
55708961,83804,110178
55718961,83833,110285
55728961,83865,110386
55738961,83887,110475
55748961,83913,110569
55758961,83950,110647
55768961,83967,110689
55778961,83979,110744
55788961,83986,110747
55798961,83982,110727
55808961,83968,110711
55818961,83974,110646
55829961,83943,110609
55839961,83945,110571
55849961,83935,110545
55859961,83926,110524
55869961,83907,110519
55879961,83924,110530
55889961,83930,110558
55899961,83939,110599
55909961,83947,110646
55919961,83959,110678
55929961,83978,110742
55939961,83996,110792
55949961,84000,110853
55959961,84021,110911
55969961,84036,110970
55979961,84061,111022
55989961,84065,111065
55999961,84080,111123
56009961,84091,111163
56020961,84098,111209
56030961,84111,111256
56040961,84119,111278
56050961,84133,111322
56060961,84134,111362
56070961,84154,111385
56080961,84151,111357
56090961,84135,111240
56100961,84078,110995
56110961,84014,110692
56120961,83941,110367
56130961,83856,110071
56140961,83787,109839
56150961,83727,109662
56160961,83689,109565
56170961,83675,109556
56180961,83680,109555
56190961,83679,109609
56201961,83700,109683
56211961,83723,109765
56221961,83749,109864
56231961,83771,109961
56241961,83799,110038
56251961,83815,110124
56261961,83835,110207
56271961,83853,110277
56281961,83883,110346
56291961,83908,110420
56301961,83926,110504
56311961,83940,110569
56321961,83969,110617
56331961,83967,110656
56341961,83975,110655
56351961,83978,110640
56361961,83973,110609
56371961,83950,110582
56382961,83945,110526
56392961,83932,110486
56402961,83918,110448
56412961,83920,110438
56422961,83907,110422
56432961,83902,110418
56442961,83915,110441
56452961,83925,110467
56462961,83927,110514
56472961,83948,110572
56482961,83968,110621
56492961,83981,110664
56502961,83996,110719
56512961,84010,110781
56522961,84025,110824
56532961,84032,110874
56542961,84048,110941
56552961,84066,110971
56563961,84067,111029
56573961,84083,111084
56583961,84093,111127
56593961,84102,111197
56603961,84109,111236
56613961,84140,111280
56623961,84157,111292
56633961,84149,111269
56643961,84122,111097
56653961,84073,110816
56663961,83992,110475
56673961,83896,110140
56683961,83808,109837
56693961,83741,109615
56703961,83684,109454
56713961,83656,109366
56723961,83652,109345
56733961,83635,109366
56743961,83658,109406
56754961,83669,109482
56764961,83692,109562
56774961,83718,109668
56784961,83740,109768
56794961,83757,109847
56804961,83779,109915
56814961,83809,109993
56824961,83823,110069
56834961,83846,110147
56844961,83869,110220
56854961,83881,110293
56864961,83911,110358
56874961,83927,110424
56884961,83952,110449
56894961,83954,110485
56904961,83953,110498
56914961,83960,110487
56924961,83947,110448
56935961,83933,110437
56945961,83936,110395
56955961,83923,110381
56965961,83908,110359
56975961,83920,110352
56985961,83923,110368
56995961,83925,110403
57005961,83937,110446
57015961,83944,110474
57025961,83976,110525
57035961,83983,110579
57045961,83993,110636
57055961,84011,110693
57065961,84026,110744
57075961,84037,110787
57085961,84055,110839
57095961,84061,110889
57105961,84067,110949
57116961,84092,110989
57126961,84093,111041
57136961,84097,111092
57146961,84122,111147
57156961,84120,111196
57166961,84137,111249
57176961,84165,111295
57186961,84170,111323
57196961,84169,111285
57206961,84151,111110
57216961,84095,110824
57226961,84012,110482
57236961,83923,110136
57246961,83819,109815
57256961,83750,109569
57266961,83695,109410
57276961,83664,109299
57286961,83640,109271
57296961,83634,109293
57307961,83653,109334
57317961,83664,109388
57327961,83679,109474
57337961,83702,109557
57347961,83714,109624
57357961,83734,109674
57367961,83743,109744
57377961,83771,109801
57387961,83779,109844
57397961,83796,109891
57407961,83811,109955
57417961,83837,110019
57427961,83855,110091
57437961,83864,110158
57447961,83888,110207
57457961,83893,110252
57467961,83919,110278
57477961,83909,110291
57488961,83913,110282
57498961,83919,110290
57508961,83895,110266
57518961,83902,110245
57528961,83889,110235
57538961,83901,110235
57548961,83897,110246
57558961,83905,110277
57568961,83902,110292
57578961,83932,110327
57588961,83937,110375
57598961,83955,110425
57608961,83962,110473
57618961,83986,110530
57628961,83994,110588
57638961,84015,110639
57648961,84028,110689
57658961,84030,110748
57669961,84043,110795
57679961,84057,110853
57689961,84068,110896
57699961,84090,110966
57709961,84091,111011
57719961,84107,111051
57729961,84119,111106
57739961,84143,111159
57749961,84146,111187
57759961,84162,111225
57769961,84169,111246
57779961,84193,111272
57789961,84185,111315
57799961,84201,111327
57809961,84201,111354
57819961,84206,111374
57829961,84221,111391
57839961,84207,111417
57849961,84210,111456
57860961,84211,111472
57870961,84224,111483
57880961,84225,111434
57890961,84203,111244
57900961,84139,110928
57910961,84034,110553
57920961,83943,110148
57930961,83832,109799
57940961,83749,109504
57950961,83685,109283
57960961,83633,109160
57970961,83614,109091
57980961,83603,109081
57990961,83610,109125
58000961,83627,109175
58010961,83642,109260
58020961,83660,109352
58030961,83689,109420
58041961,83706,109485
58051961,83715,109573
58061961,83732,109634
58071961,83751,109703
58081961,83767,109721
58091961,83774,109767
58101961,83791,109820
58111961,83797,109890
58121961,83819,109930
58131961,83834,109995
58141961,83860,110027
58151961,83862,110066
58161961,83877,110100
58171961,83885,110107
58181961,83886,110109
58191961,83886,110099
58201961,83880,110079
58211961,83873,110081
58222961,83876,110061
58232961,83867,110058
58242961,83866,110068
58252961,83881,110095
58262961,83881,110132
58272961,83889,110171
58282961,83903,110220
58292961,83927,110279
58302961,83938,110337
58312961,83960,110404
58322961,83980,110452
58332961,84003,110503
58342961,84006,110557
58352961,84017,110625
58362961,84036,110660
58372961,84050,110705
58382961,84048,110759
58392961,84077,110808
58402961,84078,110858
58413961,84092,110916
58423961,84105,110939
58433961,84114,110999
58443961,84115,111032
58453961,84135,111069
58463961,84144,111110
58473961,84159,111143
58483961,84153,111163
58493961,84182,111185
58503961,84188,111213
58513961,84190,111219
58523961,84192,111227
58533961,84190,111252
58543961,84198,111273
58553961,84199,111296
58563961,84211,111323
58573961,84203,111353
58583961,84220,111374
58594961,84223,111358
58604961,84202,111256
58614961,84162,111023
58624961,84091,110684
58634961,83994,110304
58644961,83893,109929
58654961,83797,109602
58664961,83719,109328
58674961,83657,109142
58684961,83618,109032
58694961,83609,109001
58704961,83603,109004
58714961,83611,109047
58724961,83617,109115
58734961,83647,109187
58744961,83658,109258
58754961,83683,109338
58764961,83696,109425
58775961,83707,109476
58785961,83737,109531
58795961,83736,109578
58805961,83750,109644
58815961,83764,109714
58825961,83797,109780
58835961,83810,109842
58845961,83830,109901
58855961,83843,109962
58865961,83861,109986
58875961,83885,110009
58885961,83868,110010
58895961,83873,110012
58905961,83868,109995
58915961,83877,109979
58925961,83860,109945
58935961,83854,109940
58945961,83843,109945
58956961,83858,109942
58966961,83856,109973
58976961,83867,110010
58986961,83873,110032
58996961,83878,110083
59006961,83887,110137
59016961,83911,110203
59026961,83930,110262
59036961,83949,110320
59046961,83965,110403
59056961,83989,110461
59066961,84010,110526
59076961,84033,110593
59086961,84040,110662
59096961,84065,110708
59106961,84076,110768
59116961,84085,110822
59126961,84101,110886
59136961,84119,110939
59147961,84118,110973
59157961,84144,111016
59167961,84151,111087
59177961,84160,111125
59187961,84182,111173
59197961,84197,111230
59207961,84216,111278
59217961,84212,111335
59227961,84246,111367
59237961,84255,111395
59247961,84263,111433
59257961,84278,111464
59267961,84274,111501
59277961,84284,111531
59287961,84291,111547
59297961,84293,111582
59307961,84298,111604
59317961,84304,111628
59328961,84304,111655
59338961,84319,111678
59348961,84327,111701
59358961,84317,111635
59368961,84287,111428
59378961,84215,111106
59388961,84128,110741
59398961,84038,110366
59408961,83938,110004
59418961,83856,109710
59428961,83781,109496
59438961,83742,109355
59448961,83712,109288
59458961,83701,109292
59468961,83704,109336
59478961,83726,109404
59488961,83755,109491
59498961,83774,109589
59509961,83780,109677
59519961,83821,109787
59529961,83840,109879
59539961,83866,109975
59549961,83879,110040
59559961,83899,110103
59569961,83931,110176
59579961,83944,110242
59589961,83962,110325
59599961,83982,110396
59609961,84007,110436
59619961,84019,110463
59629961,84017,110485
59639961,84028,110486
59649961,84013,110461
59659961,84020,110444
59669961,84003,110401
59679961,83990,110367
59690961,83976,110348
59700961,83990,110324
59710961,83971,110318
59720961,83966,110345
59730961,83972,110335
59740961,83985,110357
59750961,83991,110404
59760961,84001,110451
59770961,84024,110507
59780961,84048,110567
59790961,84060,110632
59800961,84078,110689
59810961,84096,110755
59820961,84104,110814
59830961,84119,110869
59840961,84141,110925
59850961,84152,110974
59860961,84159,111047
59871961,84175,111097
59881961,84188,111140
59891961,84192,111202
59901961,84219,111252
59911961,84224,111310
59921961,84240,111354
59931961,84250,111404
59941961,84270,111444
59951961,84279,111486
59961961,84284,111531
59971961,84304,111563
59981961,84305,111585
59991961,84318,111623
60001961,84337,111673
60011961,84340,111692
60021961,84348,111726
60031961,84357,111769
60041961,84371,111807
60052961,84377,111845
60062961,84390,111897
