Index,Amplitude,Amplitude
0,1850,1850
1,1819,1819
2,1854,1854
3,1835,1835
4,1841,1841
5,1855,1855
6,1847,1847
7,1840,1840
8,1860,1860
9,1850,1850
10,1839,1839
11,1840,1840
12,1854,1854
13,1835,1835
14,1839,1839
15,1849,1849
16,1909,1909
17,1937,1937
18,1968,1968
19,1997,1997
20,1984,1984
21,1968,1968
22,1942,1942
23,1966,1966
24,1933,1933
25,1925,1925
26,1917,1917
27,1897,1897
28,1873,1873
29,1890,1890
30,1867,1867
31,1868,1868
32,1869,1869
33,1877,1877
34,1859,1859
35,1839,1839
36,1867,1867
37,1851,1851
38,1840,1840
39,1840,1840
40,1815,1815
41,1813,1813
42,1826,1826
43,1835,1835
44,1839,1839
45,1830,1830
46,1809,1809
47,1819,1819
48,1838,1838
49,1814,1814
50,1824,1824
51,1847,1847
52,1815,1815
53,1859,1859
54,1884,1884
55,1942,1942
56,1963,1963
57,1959,1959
58,1941,1941
59,1941,1941
60,1934,1934
61,1909,1909
62,1894,1894
63,1899,1899
64,1885,1885
65,1872,1872
66,1854,1854
67,1857,1857
68,1870,1870
69,1837,1837
70,1867,1867
71,1873,1873
72,1850,1850
73,1856,1856
74,1846,1846
75,1861,1861
76,1837,1837
77,1856,1856
78,1839,1839
79,1823,1823
80,1849,1849
81,1825,1825
82,1826,1826
83,1831,1831
84,1835,1835
85,1834,1834
86,1826,1826
87,1830,1830
88,1859,1859
89,1889,1889
90,1901,1901
91,1936,1936
92,1959,1959
93,1984,1984
94,1985,1985
95,1983,1983
96,1968,1968
97,1951,1951
98,1955,1955
99,1937,1937
100,1933,1933
101,1894,1894
102,1908,1908
103,1869,1869
104,1877,1877
105,1863,1863
106,1847,1847
107,1854,1854
108,1871,1871
109,1863,1863
110,1854,1854
111,1830,1830
112,1842,1842
113,1840,1840
114,1830,1830
115,1843,1843
116,1824,1824
117,1822,1822
118,1813,1813
119,1797,1797
120,1795,1795
121,1809,1809
122,1821,1821
123,1808,1808
124,1818,1818
125,1808,1808
126,1841,1841
127,1869,1869
128,1918,1918
129,1936,1936
130,1965,1965
131,1973,1973
132,1968,1968
133,1955,1955
134,1947,1947
135,1917,1917
136,1907,1907
137,1892,1892
138,1873,1873
139,1883,1883
140,1854,1854
141,1840,1840
142,1854,1854
143,1840,1840
144,1826,1826
145,1836,1836
146,1849,1849
147,1838,1838
148,1821,1821
149,1805,1805
150,1809,1809
151,1824,1824
152,1799,1799
153,1808,1808
154,1780,1780
155,1797,1797
156,1806,1806
157,1805,1805
158,1787,1787
159,1806,1806
160,1809,1809
161,1783,1783
162,1819,1819
163,1813,1813
164,1819,1819
165,1830,1830
166,1810,1810
167,1828,1828
168,1877,1877
169,1916,1916
170,1961,1961
171,1971,1971
172,1984,1984
173,1968,1968
174,1943,1943
175,1923,1923
176,1898,1898
177,1891,1891
178,1877,1877
179,1869,1869
180,1876,1876
181,1861,1861
182,1829,1829
183,1835,1835
184,1830,1830
185,1836,1836
186,1827,1827
187,1834,1834
188,1824,1824
189,1822,1822
190,1831,1831
191,1824,1824
192,1822,1822
193,1808,1808
194,1821,1821
195,1829,1829
196,1829,1829
197,1805,1805
198,1818,1818
199,1824,1824
200,1841,1841
201,1825,1825
202,1824,1824
203,1862,1862
204,1872,1872
205,1867,1867
206,1877,1877
207,1855,1855
208,1885,1885
209,1938,1938
210,1952,1952
211,1986,1986
212,2000,2000
213,2002,2002
214,1971,1971
215,1947,1947
216,1909,1909
217,1921,1921
218,1926,1926
219,1903,1903
220,1919,1919
221,1892,1892
222,1885,1885
223,1874,1874
224,1855,1855
225,1878,1878
226,1870,1870
227,1858,1858
228,1872,1872
229,1855,1855
230,1847,1847
231,1840,1840
232,1834,1834
233,1863,1863
234,1829,1829
235,1831,1831
236,1840,1840
237,1869,1869
238,1837,1837
239,1845,1845
240,1834,1834
241,1837,1837
242,1842,1842
243,1843,1843
244,1851,1851
245,1847,1847
246,1856,1856
247,1861,1861
248,1930,1930
249,1981,1981
250,2012,2012
251,2000,2000
252,1996,1996
253,1988,1988
254,1968,1968
255,1919,1919
256,1937,1937
257,1924,1924
258,1917,1917
259,1893,1893
260,1918,1918
261,1875,1875
262,1899,1899
263,1898,1898
264,1881,1881
265,1864,1864
266,1883,1883
267,1878,1878
268,1849,1849
269,1882,1882
270,1858,1858
271,1845,1845
272,1865,1865
273,1863,1863
274,1862,1862
275,1857,1857
276,1874,1874
277,1853,1853
278,1859,1859
279,1855,1855
280,1857,1857
281,1875,1875
282,1879,1879
283,1887,1887
284,1934,1934
285,1969,1969
286,1981,1981
287,2011,2011
288,2002,2002
289,2000,2000
290,2000,2000
291,1983,1983
292,1946,1946
293,1938,1938
294,1938,1938
295,1927,1927
296,1900,1900
297,1906,1906
298,1885,1885
299,1879,1879
300,1872,1872
301,1875,1875
302,1862,1862
303,1857,1857
304,1857,1857
305,1875,1875
306,1850,1850
307,1839,1839
308,1853,1853
309,1840,1840
310,1841,1841
311,1856,1856
312,1854,1854
313,1851,1851
314,1846,1846
315,1840,1840
316,1870,1870
317,1837,1837
318,1856,1856
319,1906,1906
320,1946,1946
321,1982,1982
322,1991,1991
323,1989,1989
324,2002,2002
325,1967,1967
326,1961,1961
327,1942,1942
328,1938,1938
329,1911,1911
330,1917,1917
331,1904,1904
332,1872,1872
333,1872,1872
334,1867,1867
335,1866,1866
336,1855,1855
337,1863,1863
338,1854,1854
339,1850,1850
340,1844,1844
341,1859,1859
342,1839,1839
343,1841,1841
344,1840,1840
345,1843,1843
346,1840,1840
347,1840,1840
348,1841,1841
349,1834,1834
350,1839,1839
351,1862,1862
352,1861,1861
353,1867,1867
354,1918,1918
355,1966,1966
356,1985,1985
357,1996,1996
358,2000,2000
359,1972,1972
360,1972,1972
361,1956,1956
362,1923,1923
363,1920,1920
364,1932,1932
365,1904,1904
366,1895,1895
367,1899,1899
368,1893,1893
369,1883,1883
370,1879,1879
371,1887,1887
372,1869,1869
373,1863,1863
374,1871,1871
375,1840,1840
376,1862,1862
377,1843,1843
378,1858,1858
379,1845,1845
380,1861,1861
381,1858,1858
382,1846,1846
383,1852,1852
384,1858,1858
385,1853,1853
386,1843,1843
387,1921,1921
388,1957,1957
389,1994,1994
390,2013,2013
391,2027,2027
392,2021,2021
393,2016,2016
394,1953,1953
395,1938,1938
396,1939,1939
397,1920,1920
398,1898,1898
399,1881,1881
400,1886,1886
401,1891,1891
402,1878,1878
403,1863,1863
404,1865,1865
405,1861,1861
406,1849,1849
407,1858,1858
408,1834,1834
409,1840,1840
410,1834,1834
411,1833,1833
412,1839,1839
413,1830,1830
414,1833,1833
415,1827,1827
416,1829,1829
417,1813,1813
418,1833,1833
419,1827,1827
420,1872,1872
421,1933,1933
422,1985,1985
423,2022,2022
424,2022,2022
425,2022,2022
426,2020,2020
427,2005,2005
428,1983,1983
429,1967,1967
430,1967,1967
431,1962,1962
432,1921,1921
433,1905,1905
434,1887,1887
435,1856,1856
436,1841,1841
437,1877,1877
438,1841,1841
439,1853,1853
440,1830,1830
441,1821,1821
442,1819,1819
443,1839,1839
444,1821,1821
445,1812,1812
446,1798,1798
447,1783,1783
448,1824,1824
449,1822,1822
450,1797,1797
451,1823,1823
452,1807,1807
453,1820,1820
454,1812,1812
455,1822,1822
456,1887,1887
457,1943,1943
458,2000,2000
459,2016,2016
460,2055,2055
461,2020,2020
462,2017,2017
463,2000,2000
464,1963,1963
465,1947,1947
466,1937,1937
467,1923,1923
468,1918,1918
469,1889,1889
470,1875,1875
471,1858,1858
472,1872,1872
473,1879,1879
474,1868,1868
475,1846,1846
476,1829,1829
477,1838,1838
478,1810,1810
479,1808,1808
480,1788,1788
481,1773,1773
482,1805,1805
483,1792,1792
484,1810,1810
485,1781,1781
486,1808,1808
487,1823,1823
488,1817,1817
489,1811,1811
490,1803,1803
491,1840,1840
492,1835,1835
493,1863,1863
494,1881,1881
495,1938,1938
496,1981,1981
497,2035,2035
498,2026,2026
499,2032,2032
500,2023,2023
501,1980,1980
502,1959,1959
503,1959,1959
504,1931,1931
505,1927,1927
506,1894,1894
507,1891,1891
508,1865,1865
509,1857,1857
510,1840,1840
511,1840,1840
512,1835,1835
513,1835,1835
514,1826,1826
515,1824,1824
516,1807,1807
517,1824,1824
518,1789,1789
519,1804,1804
520,1794,1794
521,1776,1776
522,1793,1793
523,1791,1791
524,1808,1808
525,1779,1779
526,1779,1779
527,1792,1792
528,1785,1785
529,1801,1801
530,1799,1799
531,1822,1822
532,1849,1849
533,1876,1876
534,1930,1930
535,1981,1981
536,2004,2004
537,2006,2006
538,2015,2015
539,2001,2001
540,1971,1971
541,1950,1950
542,1939,1939
543,1933,1933
544,1925,1925
545,1914,1914
546,1903,1903
547,1903,1903
548,1893,1893
549,1871,1871
550,1841,1841
551,1817,1817
552,1808,1808
553,1810,1810
554,1815,1815
555,1825,1825
556,1828,1828
557,1857,1857
558,1865,1865
559,1855,1855
560,1826,1826
561,1824,1824
562,1827,1827
563,1809,1809
564,1830,1830
565,1830,1830
566,1851,1851
567,1862,1862
568,1883,1883
569,1872,1872
570,1887,1887
571,1872,1872
572,1899,1899
573,1933,1933
574,1985,1985
575,2002,2002
576,2002,2002
577,2027,2027
578,2002,2002
579,1982,1982
580,1956,1956
581,1927,1927
582,1904,1904
583,1885,1885
584,1871,1871
585,1850,1850
586,1826,1826
587,1822,1822
588,1827,1827
589,1822,1822
590,1847,1847
591,1842,1842
592,1850,1850
593,1845,1845
594,1839,1839
595,1841,1841
596,1854,1854
597,1836,1836
598,1837,1837
599,1828,1828
600,1833,1833
601,1825,1825
602,1838,1838
603,1840,1840
604,1839,1839
605,1824,1824
606,1833,1833
607,1837,1837
608,1841,1841
609,1841,1841
610,1862,1862
611,1886,1886
612,1925,1925
613,1967,1967
614,1984,1984
615,2029,2029
616,2003,2003
617,1985,1985
618,1966,1966
619,1936,1936
620,1930,1930
621,1920,1920
622,1904,1904
623,1898,1898
624,1887,1887
625,1890,1890
626,1866,1866
627,1897,1897
628,1879,1879
629,1861,1861
630,1883,1883
631,1869,1869
632,1865,1865
633,1866,1866
634,1867,1867
635,1856,1856
636,1856,1856
637,1840,1840
638,1872,1872
639,1846,1846
640,1842,1842
641,1869,1869
642,1859,1859
643,1857,1857
644,1870,1870
645,1869,1869
646,1902,1902
647,1938,1938
648,1978,1978
649,1999,1999
650,2033,2033
651,2027,2027
652,2013,2013
653,2009,2009
654,1978,1978
655,1951,1951
656,1931,1931
657,1944,1944
658,1936,1936
659,1901,1901
660,1898,1898
661,1886,1886
662,1873,1873
663,1895,1895
664,1892,1892
665,1863,1863
666,1857,1857
667,1865,1865
668,1856,1856
669,1853,1853
670,1851,1851
671,1854,1854
672,1853,1853
673,1846,1846
674,1840,1840
675,1863,1863
676,1856,1856
677,1843,1843
678,1858,1858
679,1851,1851
680,1856,1856
681,1863,1863
682,1891,1891
683,1882,1882
684,1921,1921
685,1952,1952
686,1982,1982
687,2030,2030
688,2035,2035
689,2039,2039
690,2001,2001
691,1973,1973
692,1968,1968
693,1946,1946
694,1967,1967
695,1934,1934
696,1914,1914
697,1907,1907
698,1898,1898
699,1883,1883
700,1881,1881
701,1909,1909
702,1885,1885
703,1886,1886
704,1879,1879
705,1861,1861
706,1857,1857
707,1873,1873
708,1855,1855
709,1859,1859
710,1860,1860
711,1872,1872
712,1870,1870
713,1865,1865
714,1859,1859
715,1858,1858
716,1872,1872
717,1888,1888
718,1873,1873
719,1860,1860
720,1887,1887
721,1878,1878
722,1872,1872
723,1886,1886
724,1937,1937
725,2001,2001
726,2032,2032
727,2054,2054
728,2078,2078
729,2038,2038
730,2014,2014
731,1989,1989
732,1963,1963
733,1933,1933
734,1934,1934
735,1904,1904
736,1904,1904
737,1878,1878
738,1874,1874
739,1882,1882
740,1872,1872
741,1879,1879
742,1882,1882
743,1904,1904
744,1872,1872
745,1883,1883
746,1867,1867
747,1870,1870
748,1869,1869
749,1877,1877
750,1859,1859
751,1853,1853
752,1872,1872
753,1855,1855
754,1847,1847
755,1862,1862
756,1840,1840
757,1866,1866
758,1869,1869
759,1886,1886
760,1909,1909
761,1904,1904
762,1975,1975
763,2023,2023
764,2027,2027
765,2037,2037
766,2037,2037
767,2044,2044
768,1987,1987
769,1968,1968
770,1949,1949
771,1951,1951
772,1939,1939
773,1937,1937
774,1919,1919
775,1904,1904
776,1927,1927
777,1904,1904
778,1887,1887
779,1911,1911
780,1896,1896
781,1909,1909
782,1904,1904
783,1872,1872
784,1868,1868
785,1871,1871
786,1856,1856
787,1866,1866
788,1875,1875
789,1885,1885
790,1861,1861
791,1860,1860
792,1861,1861
793,1853,1853
794,1873,1873
795,1893,1893
796,1873,1873
797,1913,1913
798,1950,1950
799,1999,1999
800,2039,2039
801,2056,2056
802,2042,2042
803,2013,2013
804,2010,2010
805,1957,1957
806,1938,1938
807,1930,1930
808,1916,1916
809,1936,1936
810,1914,1914
811,1903,1903
812,1901,1901
813,1891,1891
814,1891,1891
815,1888,1888
816,1902,1902
817,1872,1872
818,1873,1873
819,1872,1872
820,1872,1872
821,1861,1861
822,1872,1872
823,1872,1872
824,1858,1858
825,1863,1863
826,1857,1857
827,1846,1846
828,1871,1871
829,1882,1882
830,1915,1915
831,1957,1957
832,1996,1996
833,2037,2037
834,2046,2046
835,2029,2029
836,2031,2031
837,1981,1981
838,1951,1951
839,1947,1947
840,1943,1943
841,1922,1922
842,1918,1918
843,1923,1923
844,1902,1902
845,1882,1882
846,1902,1902
847,1894,1894
848,1911,1911
849,1898,1898
850,1903,1903
851,1872,1872
852,1879,1879
853,1882,1882
854,1879,1879
855,1868,1868
856,1859,1859
857,1871,1871
858,1867,1867
859,1871,1871
860,1869,1869
861,1910,1910
862,1953,1953
863,1991,1991
864,2046,2046
865,2064,2064
866,2032,2032
867,2027,2027
868,2002,2002
869,1998,1998
870,1979,1979
871,1959,1959
872,1949,1949
873,1936,1936
874,1946,1946
875,1930,1930
876,1879,1879
877,1893,1893
878,1879,1879
879,1893,1893
880,1872,1872
881,1870,1870
882,1885,1885
883,1881,1881
884,1863,1863
885,1845,1845
886,1846,1846
887,1847,1847
888,1839,1839
889,1840,1840
890,1866,1866
891,1873,1873
892,1907,1907
893,1968,1968
894,2007,2007
895,2063,2063
896,2064,2064
897,2059,2059
898,2071,2071
899,2032,2032
900,2029,2029
901,2020,2020
902,2018,2018
903,1982,1982
904,1959,1959
905,1911,1911
906,1899,1899
907,1890,1890
908,1874,1874
909,1854,1854
910,1856,1856
911,1859,1859
912,1847,1847
913,1839,1839
914,1827,1827
915,1819,1819
916,1813,1813
917,1794,1794
918,1808,1808
919,1813,1813
920,1797,1797
921,1797,1797
922,1809,1809
923,1804,1804
924,1840,1840
925,1891,1891
926,1968,1968
927,2037,2037
928,2043,2043
929,2065,2065
930,2065,2065
931,2065,2065
932,2039,2039
933,2037,2037
934,2045,2045
935,2006,2006
936,1966,1966
937,1936,1936
938,1917,1917
939,1879,1879
940,1868,1868
941,1853,1853
942,1840,1840
943,1834,1834
944,1840,1840
945,1803,1803
946,1826,1826
947,1794,1794
948,1779,1779
949,1778,1778
950,1783,1783
951,1775,1775
952,1776,1776
953,1774,1774
954,1779,1779
955,1776,1776
956,1783,1783
957,1759,1759
958,1771,1771
959,1781,1781
960,1769,1769
961,1773,1773
962,1803,1803
963,1851,1851
964,1904,1904
965,1991,1991
966,2039,2039
967,2070,2070
968,2093,2093
969,2075,2075
970,2026,2026
971,2018,2018
972,2006,2006
973,2000,2000
974,1973,1973
975,1936,1936
976,1909,1909
977,1874,1874
978,1859,1859
979,1840,1840
980,1840,1840
981,1838,1838
982,1807,1807
983,1792,1792
984,1798,1798
985,1776,1776
986,1776,1776
987,1775,1775
988,1767,1767
989,1749,1749
990,1733,1733
991,1743,1743
992,1744,1744
993,1755,1755
994,1725,1725
995,1746,1746
996,1729,1729
997,1742,1742
998,1726,1726
999,1771,1771
1000,1766,1766
1001,1770,1770
1002,1742,1742
1003,1767,1767
1004,1811,1811
1005,1883,1883
1006,1941,1941
1007,1991,1991
1008,2045,2045
1009,2041,2041
1010,2032,2032
1011,2018,2018
1012,2027,2027
1013,1980,1980
1014,1952,1952
1015,1925,1925
1016,1904,1904
1017,1888,1888
1018,1847,1847
1019,1863,1863
1020,1813,1813
1021,1806,1806
1022,1806,1806
1023,1803,1803
1024,1779,1779
1025,1786,1786
1026,1762,1762
1027,1754,1754
1028,1756,1756
1029,1755,1755
1030,1734,1734
1031,1744,1744
1032,1735,1735
1033,1735,1735
1034,1726,1726
1035,1721,1721
1036,1753,1753
1037,1744,1744
1038,1733,1733
1039,1741,1741
1040,1758,1758
1041,1754,1754
1042,1751,1751
1043,1801,1801
1044,1833,1833
1045,1856,1856
1046,1922,1922
1047,1985,1985
1048,2027,2027
1049,2026,2026
1050,2002,2002
1051,1993,1993
1052,1987,1987
1053,1949,1949
1054,1932,1932
1055,1930,1930
1056,1887,1887
1057,1867,1867
1058,1856,1856
1059,1813,1813
1060,1830,1830
1061,1807,1807
1062,1809,1809
1063,1811,1811
1064,1771,1771
1065,1769,1769
1066,1787,1787
1067,1776,1776
1068,1783,1783
1069,1749,1749
1070,1766,1766
1071,1754,1754
1072,1757,1757
1073,1745,1745
1074,1765,1765
1075,1766,1766
1076,1758,1758
1077,1786,1786
1078,1773,1773
1079,1774,1774
1080,1781,1781
1081,1766,1766
1082,1792,1792
1083,1824,1824
1084,1797,1797
1085,1809,1809
1086,1845,1845
1087,1883,1883
1088,1940,1940
1089,1993,1993
1090,2009,2009
1091,2033,2033
1092,2000,2000
1093,1969,1969
1094,1949,1949
1095,1929,1929
1096,1919,1919
1097,1895,1895
1098,1877,1877
1099,1872,1872
1100,1864,1864
1101,1830,1830
1102,1831,1831
1103,1819,1819
1104,1835,1835
1105,1798,1798
1106,1810,1810
1107,1778,1778
1108,1808,1808
1109,1791,1791
1110,1791,1791
1111,1786,1786
1112,1777,1777
1113,1810,1810
1114,1794,1794
1115,1805,1805
1116,1797,1797
1117,1801,1801
1118,1820,1820
1119,1840,1840
1120,1845,1845
1121,1840,1840
1122,1861,1861
1123,1875,1875
1124,1859,1859
1125,1872,1872
1126,1871,1871
1127,1845,1845
1128,1877,1877
1129,1924,1924
1130,1962,1962
1131,2032,2032
1132,2069,2069
1133,2064,2064
1134,2055,2055
1135,2032,2032
1136,1996,1996
1137,1942,1942
1138,1950,1950
1139,1936,1936
1140,1915,1915
1141,1910,1910
1142,1883,1883
1143,1872,1872
1144,1869,1869
1145,1854,1854
1146,1840,1840
1147,1840,1840
1148,1831,1831
1149,1840,1840
1150,1833,1833
1151,1840,1840
1152,1842,1842
1153,1865,1865
1154,1838,1838
1155,1834,1834
1156,1853,1853
1157,1858,1858
1158,1840,1840
1159,1856,1856
1160,1846,1846
1161,1854,1854
1162,1842,1842
1163,1856,1856
1164,1867,1867
1165,1853,1853
1166,1872,1872
1167,1867,1867
1168,1888,1888
1169,1872,1872
1170,1903,1903
1171,1955,1955
1172,2000,2000
1173,2041,2041
1174,2081,2081
1175,2078,2078
1176,2046,2046
1177,2023,2023
1178,1981,1981
1179,1971,1971
1180,1961,1961
1181,1920,1920
1182,1917,1917
1183,1922,1922
1184,1893,1893
1185,1878,1878
1186,1876,1876
1187,1883,1883
1188,1851,1851
1189,1857,1857
1190,1877,1877
1191,1866,1866
1192,1861,1861
1193,1859,1859
1194,1872,1872
1195,1856,1856
1196,1873,1873
1197,1870,1870
1198,1850,1850
1199,1879,1879
1200,1840,1840
1201,1851,1851
1202,1856,1856
1203,1866,1866
1204,1877,1877
1205,1876,1876
1206,1873,1873
1207,1885,1885
1208,1859,1859
1209,1902,1902
1210,1943,1943
1211,1995,1995
1212,2033,2033
1213,2045,2045
1214,2064,2064
1215,2045,2045
1216,2035,2035
1217,1967,1967
1218,1978,1978
1219,1954,1954
1220,1937,1937
1221,1911,1911
1222,1889,1889
1223,1885,1885
1224,1883,1883
1225,1887,1887
1226,1904,1904
1227,1873,1873
1228,1871,1871
1229,1868,1868
1230,1859,1859
1231,1872,1872
1232,1865,1865
1233,1844,1844
1234,1857,1857
1235,1863,1863
1236,1856,1856
1237,1845,1845
1238,1843,1843
1239,1831,1831
1240,1862,1862
1241,1861,1861
1242,1855,1855
1243,1871,1871
1244,1881,1881
1245,1922,1922
1246,1997,1997
1247,2031,2031
1248,2063,2063
1249,2081,2081
1250,2059,2059
1251,2000,2000
1252,1968,1968
1253,1935,1935
1254,1958,1958
1255,1919,1919
1256,1904,1904
1257,1902,1902
1258,1881,1881
1259,1895,1895
1260,1891,1891
1261,1898,1898
1262,1910,1910
1263,1893,1893
1264,1894,1894
1265,1895,1895
1266,1883,1883
1267,1872,1872
1268,1882,1882
1269,1886,1886
1270,1872,1872
1271,1892,1892
1272,1889,1889
1273,1894,1894
1274,1904,1904
1275,1902,1902
1276,1906,1906
1277,1921,1921
1278,1952,1952
1279,2000,2000
1280,2062,2062
1281,2096,2096
1282,2096,2096
1283,2102,2102
1284,2077,2077
1285,2034,2034
1286,1983,1983
1287,1971,1971
1288,1984,1984
1289,1953,1953
1290,1927,1927
1291,1936,1936
1292,1917,1917
1293,1906,1906
1294,1886,1886
1295,1886,1886
1296,1904,1904
1297,1904,1904
1298,1893,1893
1299,1891,1891
1300,1904,1904
1301,1883,1883
1302,1895,1895
1303,1875,1875
1304,1877,1877
1305,1884,1884
1306,1872,1872
1307,1879,1879
1308,1883,1883
1309,1906,1906
1310,1894,1894
1311,1934,1934
1312,1966,1966
1313,2005,2005
1314,2069,2069
1315,2110,2110
1316,2126,2126
1317,2100,2100
1318,2086,2086
1319,2046,2046
1320,2009,2009
1321,2019,2019
1322,1987,1987
1323,1978,1978
1324,1951,1951
1325,1949,1949
1326,1917,1917
1327,1907,1907
1328,1872,1872
1329,1885,1885
1330,1879,1879
1331,1871,1871
1332,1870,1870
1333,1875,1875
1334,1873,1873
1335,1846,1846
1336,1872,1872
1337,1857,1857
1338,1855,1855
1339,1859,1859
1340,1877,1877
1341,1867,1867
1342,1874,1874
1343,1863,1863
1344,1880,1880
1345,1904,1904
1346,1958,1958
1347,1983,1983
1348,2080,2080
1349,2101,2101
1350,2138,2138
1351,2128,2128
1352,2064,2064
1353,2034,2034
1354,2013,2013
1355,1970,1970
1356,1973,1973
1357,1947,1947
1358,1921,1921
1359,1935,1935
1360,1907,1907
1361,1907,1907
1362,1889,1889
1363,1872,1872
1364,1897,1897
1365,1886,1886
1366,1883,1883
1367,1876,1876
1368,1883,1883
1369,1866,1866
1370,1873,1873
1371,1871,1871
1372,1877,1877
1373,1859,1859
1374,1850,1850
1375,1866,1866
1376,1875,1875
1377,1869,1869
1378,1889,1889
1379,1895,1895
1380,1929,1929
1381,1999,1999
1382,2046,2046
1383,2096,2096
1384,2099,2099
1385,2105,2105
1386,2070,2070
1387,2043,2043
1388,1974,1974
1389,1968,1968
1390,1967,1967
1391,1943,1943
1392,1905,1905
1393,1887,1887
1394,1899,1899
1395,1870,1870
1396,1878,1878
1397,1863,1863
1398,1867,1867
1399,1867,1867
1400,1870,1870
1401,1879,1879
1402,1882,1882
1403,1870,1870
1404,1861,1861
1405,1862,1862
1406,1866,1866
1407,1859,1859
1408,1862,1862
1409,1867,1867
1410,1866,1866
1411,1913,1913
1412,1965,1965
1413,2038,2038
1414,2066,2066
1415,2087,2087
1416,2074,2074
1417,2064,2064
1418,2033,2033
1419,2016,2016
1420,1961,1961
1421,1937,1937
1422,1942,1942
1423,1921,1921
1424,1910,1910
1425,1905,1905
1426,1879,1879
1427,1867,1867
1428,1886,1886
1429,1893,1893
1430,1887,1887
1431,1862,1862
1432,1863,1863
1433,1872,1872
1434,1866,1866
1435,1854,1854
1436,1843,1843
1437,1851,1851
1438,1858,1858
1439,1860,1860
1440,1856,1856
1441,1877,1877
1442,1917,1917
1443,1971,1971
1444,2037,2037
1445,2082,2082
1446,2096,2096
1447,2064,2064
1448,2045,2045
1449,2020,2020
1450,2000,2000
1451,1957,1957
1452,1963,1963
1453,1934,1934
1454,1903,1903
1455,1904,1904
1456,1881,1881
1457,1872,1872
1458,1882,1882
1459,1872,1872
1460,1861,1861
1461,1866,1866
1462,1866,1866
1463,1863,1863
1464,1839,1839
1465,1843,1843
1466,1842,1842
1467,1835,1835
1468,1852,1852
1469,1857,1857
1470,1845,1845
1471,1856,1856
1472,1897,1897
1473,1959,1959
1474,2002,2002
1475,2034,2034
1476,2082,2082
1477,2105,2105
1478,2074,2074
1479,2017,2017
1480,1994,1994
1481,1968,1968
1482,1963,1963
1483,1967,1967
1484,1945,1945
1485,1895,1895
1486,1886,1886
1487,1867,1867
1488,1863,1863
1489,1863,1863
1490,1872,1872
1491,1879,1879
1492,1845,1845
1493,1855,1855
1494,1841,1841
1495,1856,1856
1496,1843,1843
1497,1845,1845
1498,1843,1843
1499,1821,1821
1500,1830,1830
1501,1841,1841
1502,1842,1842
1503,1859,1859
1504,1882,1882
1505,1959,1959
1506,2013,2013
1507,2064,2064
1508,2095,2095
1509,2083,2083
1510,2101,2101
1511,2059,2059
1512,2043,2043
1513,2000,2000
1514,2003,2003
1515,1972,1972
1516,1936,1936
1517,1933,1933
1518,1887,1887
1519,1882,1882
1520,1859,1859
1521,1847,1847
1522,1850,1850
1523,1857,1857
1524,1840,1840
1525,1813,1813
1526,1840,1840
1527,1819,1819
1528,1815,1815
1529,1815,1815
1530,1837,1837
1531,1834,1834
1532,1823,1823
1533,1843,1843
1534,1846,1846
1535,1838,1838
1536,1851,1851
1537,1861,1861
1538,1855,1855
1539,1909,1909
1540,1991,1991
1541,2034,2034
1542,2087,2087
1543,2110,2110
1544,2115,2115
1545,2089,2089
1546,2059,2059
1547,2032,2032
1548,2000,2000
1549,1999,1999
1550,1975,1975
1551,1967,1967
1552,1921,1921
1553,1905,1905
1554,1870,1870
1555,1856,1856
1556,1842,1842
1557,1863,1863
1558,1840,1840
1559,1869,1869
1560,1850,1850
1561,1835,1835
1562,1837,1837
1563,1815,1815
1564,1819,1819
1565,1822,1822
1566,1811,1811
1567,1818,1818
1568,1817,1817
1569,1829,1829
1570,1842,1842
1571,1819,1819
1572,1831,1831
1573,1846,1846
1574,1837,1837
1575,1843,1843
1576,1852,1852
1577,1874,1874
1578,1914,1914
1579,1975,1975
1580,2034,2034
1581,2134,2134
1582,2132,2132
1583,2125,2125
1584,2111,2111
1585,2067,2067
1586,2031,2031
1587,1978,1978
1588,1985,1985
1589,1940,1940
1590,1935,1935
1591,1913,1913
1592,1879,1879
1593,1867,1867
1594,1863,1863
1595,1853,1853
1596,1845,1845
1597,1841,1841
1598,1858,1858
1599,1851,1851
1600,1840,1840
1601,1840,1840
1602,1834,1834
1603,1827,1827
1604,1814,1814
1605,1825,1825
1606,1823,1823
1607,1821,1821
1608,1827,1827
1609,1855,1855
1610,1849,1849
1611,1837,1837
1612,1856,1856
1613,1845,1845
1614,1837,1837
1615,1846,1846
1616,1844,1844
1617,1872,1872
1618,1895,1895
1619,1980,1980
1620,2088,2088
1621,2110,2110
1622,2130,2130
1623,2112,2112
1624,2114,2114
1625,2071,2071
1626,2026,2026
1627,1968,1968
1628,1963,1963
1629,1951,1951
1630,1936,1936
1631,1904,1904
1632,1885,1885
1633,1891,1891
1634,1867,1867
1635,1877,1877
1636,1869,1869
1637,1856,1856
1638,1872,1872
1639,1845,1845
1640,1861,1861
1641,1866,1866
1642,1839,1839
1643,1833,1833
1644,1852,1852
1645,1857,1857
1646,1837,1837
1647,1850,1850
1648,1850,1850
1649,1873,1873
1650,1863,1863
1651,1862,1862
1652,1875,1875
1653,1887,1887
1654,1905,1905
1655,1903,1903
1656,1886,1886
1657,1883,1883
1658,1914,1914
1659,1899,1899
1660,1950,1950
1661,1967,1967
1662,2080,2080
1663,2137,2137
1664,2111,2111
1665,2111,2111
1666,2085,2085
1667,2023,2023
1668,2015,2015
1669,1984,1984
1670,1943,1943
1671,1921,1921
1672,1938,1938
1673,1894,1894
1674,1885,1885
1675,1900,1900
1676,1906,1906
1677,1893,1893
1678,1879,1879
1679,1898,1898
1680,1898,1898
1681,1877,1877
1682,1861,1861
1683,1871,1871
1684,1871,1871
1685,1875,1875
1686,1856,1856
1687,1847,1847
1688,1859,1859
1689,1894,1894
1690,1895,1895
1691,1867,1867
1692,1866,1866
1693,1892,1892
1694,1902,1902
1695,1873,1873
1696,1893,1893
1697,1898,1898
1698,1943,1943
1699,2015,2015
1700,2091,2091
1701,2104,2104
1702,2112,2112
1703,2105,2105
1704,2047,2047
1705,2029,2029
1706,1983,1983
1707,1965,1965
1708,1946,1946
1709,1936,1936
1710,1909,1909
1711,1888,1888
1712,1910,1910
1713,1867,1867
1714,1895,1895
1715,1895,1895
1716,1895,1895
1717,1874,1874
1718,1904,1904
1719,1898,1898
1720,1891,1891
1721,1875,1875
1722,1875,1875
1723,1898,1898
1724,1852,1852
1725,1897,1897
1726,1853,1853
1727,1891,1891
1728,1910,1910
1729,1890,1890
1730,1906,1906
1731,1913,1913
1732,1904,1904
1733,1934,1934
1734,1983,1983
1735,2086,2086
1736,2115,2115
1737,2119,2119
1738,2125,2125
1739,2079,2079
1740,2047,2047
1741,2014,2014
1742,1971,1971
1743,1962,1962
1744,1953,1953
1745,1937,1937
1746,1909,1909
1747,1914,1914
1748,1889,1889
1749,1874,1874
1750,1919,1919
1751,1875,1875
1752,1905,1905
1753,1887,1887
1754,1890,1890
1755,1899,1899
1756,1883,1883
1757,1889,1889
1758,1893,1893
1759,1888,1888
1760,1857,1857
1761,1897,1897
1762,1887,1887
1763,1917,1917
1764,1886,1886
1765,1903,1903
1766,1901,1901
1767,1897,1897
1768,1895,1895
1769,1899,1899
1770,1915,1915
1771,1963,1963
1772,2046,2046
1773,2087,2087
1774,2122,2122
1775,2143,2143
1776,2128,2128
1777,2096,2096
1778,2070,2070
1779,2023,2023
1780,2007,2007
1781,1968,1968
1782,1963,1963
1783,1963,1963
1784,1917,1917
1785,1942,1942
1786,1904,1904
1787,1906,1906
1788,1881,1881
1789,1925,1925
1790,1905,1905
1791,1907,1907
1792,1907,1907
1793,1930,1930
1794,1883,1883
1795,1891,1891
1796,1879,1879
1797,1902,1902
1798,1889,1889
1799,1877,1877
1800,1886,1886
1801,1902,1902
1802,1906,1906
1803,1889,1889
1804,1915,1915
1805,1890,1890
1806,1931,1931
1807,1909,1909
1808,1904,1904
1809,1914,1914
1810,1933,1933
1811,1983,1983
1812,2035,2035
1813,2106,2106
1814,2159,2159
1815,2189,2189
1816,2161,2161
1817,2129,2129
1818,2111,2111
1819,2038,2038
1820,2033,2033
1821,1982,1982
1822,1989,1989
1823,1941,1941
1824,1926,1926
1825,1904,1904
1826,1897,1897
1827,1863,1863
1828,1887,1887
1829,1854,1854
1830,1873,1873
1831,1862,1862
1832,1843,1843
1833,1853,1853
1834,1875,1875
1835,1853,1853
1836,1881,1881
1837,1861,1861
1838,1867,1867
1839,1844,1844
1840,1844,1844
1841,1847,1847
1842,1847,1847
1843,1822,1822
1844,1847,1847
1845,1839,1839
1846,1872,1872
1847,1877,1877
1848,1903,1903
1849,1897,1897
1850,1932,1932
1851,1965,1965
1852,2018,2018
1853,2098,2098
1854,2150,2150
1855,2159,2159
1856,2107,2107
1857,2102,2102
1858,2054,2054
1859,2039,2039
1860,1983,1983
1861,1968,1968
1862,1969,1969
1863,1939,1939
1864,1931,1931
1865,1904,1904
1866,1922,1922
1867,1890,1890
1868,1893,1893
1869,1894,1894
1870,1871,1871
1871,1867,1867
1872,1859,1859
1873,1860,1860
1874,1852,1852
1875,1840,1840
1876,1842,1842
1877,1849,1849
1878,1827,1827
1879,1826,1826
1880,1838,1838
1881,1827,1827
1882,1855,1855
1883,1849,1849
1884,1863,1863
1885,1846,1846
1886,1899,1899
1887,1872,1872
1888,1857,1857
1889,1906,1906
1890,1907,1907
1891,1971,1971
1892,2027,2027
1893,2090,2090
1894,2153,2153
1895,2131,2131
1896,2127,2127
1897,2098,2098
1898,2047,2047
1899,2032,2032
1900,1987,1987
1901,1982,1982
1902,1941,1941
1903,1923,1923
1904,1887,1887
1905,1903,1903
1906,1883,1883
1907,1868,1868
1908,1861,1861
1909,1869,1869
1910,1866,1866
1911,1873,1873
1912,1837,1837
1913,1840,1840
1914,1808,1808
1915,1803,1803
1916,1821,1821
1917,1811,1811
1918,1797,1797
1919,1804,1804
1920,1807,1807
1921,1802,1802
1922,1808,1808
1923,1807,1807
1924,1815,1815
1925,1821,1821
1926,1834,1834
1927,1851,1851
1928,1926,1926
1929,1955,1955
1930,2032,2032
1931,2128,2128
1932,2152,2152
1933,2166,2166
1934,2139,2139
1935,2103,2103
1936,2074,2074
1937,2021,2021
1938,1975,1975
1939,1926,1926
1940,1919,1919
1941,1883,1883
1942,1843,1843
1943,1862,1862
1944,1853,1853
1945,1859,1859
1946,1837,1837
1947,1808,1808
1948,1831,1831
1949,1811,1811
1950,1779,1779
1951,1776,1776
1952,1779,1779
1953,1787,1787
1954,1774,1774
1955,1786,1786
1956,1773,1773
1957,1779,1779
1958,1778,1778
1959,1777,1777
1960,1776,1776
1961,1782,1782
1962,1822,1822
1963,1879,1879
1964,1956,1956
1965,2057,2057
1966,2095,2095
1967,2127,2127
1968,2128,2128
1969,2096,2096
1970,2064,2064
1971,1999,1999
1972,1967,1967
1973,1934,1934
1974,1888,1888
1975,1878,1878
1976,1845,1845
1977,1821,1821
1978,1808,1808
1979,1807,1807
1980,1803,1803
1981,1805,1805
1982,1789,1789
1983,1767,1767
1984,1746,1746
1985,1756,1756
1986,1735,1735
1987,1719,1719
1988,1706,1706
1989,1740,1740
1990,1744,1744
1991,1750,1750
1992,1727,1727
1993,1738,1738
1994,1729,1729
1995,1782,1782
1996,1818,1818
1997,1898,1898
1998,1985,1985
1999,2096,2096
2000,2127,2127
2001,2160,2160
2002,2159,2159
2003,2099,2099
2004,2066,2066
2005,2014,2014
2006,1968,1968
2007,1954,1954
2008,1904,1904
2009,1872,1872
2010,1850,1850
2011,1819,1819
2012,1794,1794
2013,1771,1771
2014,1751,1751
2015,1763,1763
2016,1744,1744
2017,1761,1761
2018,1712,1712
2019,1712,1712
2020,1723,1723
2021,1684,1684
2022,1695,1695
2023,1696,1696
2024,1687,1687
2025,1687,1687
2026,1677,1677
2027,1695,1695
2028,1690,1690
2029,1705,1705
2030,1735,1735
2031,1781,1781
2032,1865,1865
2033,1958,1958
2034,2043,2043
2035,2106,2106
2036,2112,2112
2037,2114,2114
2038,2076,2076
2039,2046,2046
2040,1988,1988
2041,1991,1991
2042,1935,1935
2043,1893,1893
2044,1863,1863
2045,1847,1847
2046,1806,1806
2047,1781,1781
2048,1759,1759
2049,1775,1775
2050,1738,1738
2051,1739,1739
2052,1741,1741
2053,1711,1711
2054,1709,1709
2055,1712,1712
2056,1685,1685
2057,1689,1689
2058,1702,1702
2059,1696,1696
2060,1697,1697
2061,1699,1699
2062,1681,1681
2063,1687,1687
2064,1710,1710
2065,1734,1734
2066,1738,1738
2067,1757,1757
2068,1718,1718
2069,1750,1750
2070,1774,1774
2071,1836,1836
2072,1902,1902
2073,2010,2010
2074,2058,2058
2075,2099,2099
2076,2133,2133
2077,2104,2104
2078,2039,2039
2079,2011,2011
2080,1975,1975
2081,1939,1939
2082,1910,1910
2083,1891,1891
2084,1855,1855
2085,1809,1809
2086,1790,1790
2087,1794,1794
2088,1754,1754
2089,1771,1771
2090,1759,1759
2091,1763,1763
2092,1767,1767
2093,1727,1727
2094,1744,1744
2095,1728,1728
2096,1717,1717
2097,1709,1709
2098,1721,1721
2099,1710,1710
2100,1739,1739
2101,1740,1740
2102,1763,1763
2103,1744,1744
2104,1742,1742
2105,1750,1750
2106,1766,1766
2107,1776,1776
2108,1790,1790
2109,1797,1797
2110,1793,1793
2111,1815,1815
2112,1814,1814
2113,1834,1834
2114,1883,1883
2115,1969,1969
2116,2064,2064
2117,2113,2113
2118,2138,2138
2119,2142,2142
2120,2129,2129
2121,2071,2071
2122,2023,2023
2123,1985,1985
2124,1943,1943
2125,1935,1935
2126,1922,1922
2127,1870,1870
2128,1837,1837
2129,1838,1838
2130,1820,1820
2131,1810,1810
2132,1790,1790
2133,1801,1801
2134,1776,1776
2135,1787,1787
2136,1770,1770
2137,1764,1764
2138,1757,1757
2139,1743,1743
2140,1765,1765
2141,1755,1755
2142,1763,1763
2143,1758,1758
2144,1770,1770
2145,1747,1747
2146,1776,1776
2147,1771,1771
2148,1783,1783
2149,1782,1782
2150,1788,1788
2151,1801,1801
2152,1807,1807
2153,1815,1815
2154,1835,1835
2155,1825,1825
2156,1871,1871
2157,1947,1947
2158,2018,2018
2159,2067,2067
2160,2119,2119
2161,2121,2121
2162,2107,2107
2163,2064,2064
2164,2018,2018
2165,1979,1979
2166,1935,1935
2167,1917,1917
2168,1909,1909
2169,1872,1872
2170,1855,1855
2171,1824,1824
2172,1815,1815
2173,1840,1840
2174,1815,1815
2175,1823,1823
2176,1811,1811
2177,1794,1794
2178,1798,1798
2179,1796,1796
2180,1787,1787
2181,1798,1798
2182,1786,1786
2183,1808,1808
2184,1773,1773
2185,1776,1776
2186,1781,1781
2187,1802,1802
2188,1779,1779
2189,1793,1793
2190,1797,1797
2191,1808,1808
2192,1820,1820
2193,1825,1825
2194,1833,1833
2195,1840,1840
2196,1858,1858
2197,1910,1910
2198,1990,1990
2199,2034,2034
2200,2064,2064
2201,2106,2106
2202,2107,2107
2203,2037,2037
2204,2011,2011
2205,1967,1967
2206,1947,1947
2207,1915,1915
2208,1869,1869
2209,1859,1859
2210,1838,1838
2211,1837,1837
2212,1842,1842
2213,1846,1846
2214,1834,1834
2215,1851,1851
2216,1837,1837
2217,1839,1839
2218,1823,1823
2219,1813,1813
2220,1831,1831
2221,1808,1808
2222,1808,1808
2223,1815,1815
2224,1808,1808
2225,1811,1811
2226,1839,1839
2227,1829,1829
2228,1850,1850
2229,1854,1854
2230,1851,1851
2231,1868,1868
2232,1855,1855
2233,1879,1879
2234,1945,1945
2235,2001,2001
2236,2087,2087
2237,2092,2092
2238,2118,2118
2239,2112,2112
2240,2098,2098
2241,2043,2043
2242,1987,1987
2243,1966,1966
2244,1940,1940
2245,1907,1907
2246,1897,1897
2247,1890,1890
2248,1855,1855
2249,1876,1876
2250,1866,1866
2251,1840,1840
2252,1851,1851
2253,1854,1854
2254,1866,1866
2255,1827,1827
2256,1835,1835
2257,1821,1821
2258,1801,1801
2259,1808,1808
2260,1791,1791
2261,1814,1814
2262,1811,1811
2263,1813,1813
2264,1803,1803
2265,1829,1829
2266,1810,1810
2267,1840,1840
2268,1840,1840
2269,1840,1840
2270,1871,1871
2271,1899,1899
2272,1939,1939
2273,2001,2001
2274,2117,2117
2275,2177,2177
2276,2218,2218
2277,2177,2177
2278,2160,2160
2279,2133,2133
2280,2093,2093
2281,2027,2027
2282,2006,2006
2283,1987,1987
2284,1930,1930
2285,1897,1897
2286,1904,1904
2287,1841,1841
2288,1850,1850
2289,1834,1834
2290,1830,1830
2291,1806,1806
2292,1787,1787
2293,1791,1791
2294,1773,1773
2295,1760,1760
2296,1760,1760
2297,1732,1732
2298,1759,1759
2299,1746,1746
2300,1741,1741
2301,1744,1744
2302,1769,1769
2303,1765,1765
2304,1768,1768
2305,1791,1791
2306,1821,1821
2307,1808,1808
2308,1808,1808
2309,1825,1825
2310,1863,1863
2311,1920,1920
2312,2027,2027
2313,2095,2095
2314,2188,2188
2315,2209,2209
2316,2206,2206
2317,2177,2177
2318,2155,2155
2319,2091,2091
2320,2029,2029
2321,1999,1999
2322,1953,1953
2323,1931,1931
2324,1904,1904
2325,1892,1892
2326,1838,1838
2327,1857,1857
2328,1822,1822
2329,1808,1808
2330,1797,1797
2331,1813,1813
2332,1794,1794
2333,1756,1756
2334,1781,1781
2335,1767,1767
2336,1734,1734
2337,1739,1739
2338,1723,1723
2339,1744,1744
2340,1728,1728
2341,1721,1721
2342,1765,1765
2343,1762,1762
2344,1748,1748
2345,1767,1767
2346,1763,1763
2347,1797,1797
2348,1819,1819
2349,1906,1906
2350,1995,1995
2351,2099,2099
2352,2136,2136
2353,2134,2134
2354,2107,2107
2355,2064,2064
2356,2007,2007
2357,1959,1959
2358,1897,1897
2359,1885,1885
2360,1842,1842
2361,1808,1808
2362,1805,1805
2363,1776,1776
2364,1791,1791
2365,1773,1773
2366,1790,1790
2367,1765,1765
2368,1743,1743
2369,1744,1744
2370,1744,1744
2371,1735,1735
2372,1744,1744
2373,1717,1717
2374,1730,1730
2375,1707,1707
2376,1721,1721
2377,1712,1712
2378,1698,1698
2379,1710,1710
2380,1712,1712
2381,1718,1718
2382,1765,1765
2383,1855,1855
2384,1894,1894
2385,2032,2032
2386,2086,2086
2387,2167,2167
2388,2182,2182
2389,2133,2133
2390,2071,2071
2391,2014,2014
2392,1968,1968
2393,1934,1934
2394,1873,1873
2395,1872,1872
2396,1851,1851
2397,1805,1805
2398,1807,1807
2399,1809,1809
2400,1814,1814
2401,1838,1838
2402,1808,1808
2403,1782,1782
2404,1748,1748
2405,1744,1744
2406,1722,1722
2407,1699,1699
2408,1653,1653
2409,1658,1658
2410,1659,1659
2411,1639,1639
2412,1623,1623
2413,1658,1658
2414,1659,1659
2415,1681,1681
2416,1777,1777
2417,1888,1888
2418,2032,2032
2419,2117,2117
2420,2176,2176
2421,2160,2160
2422,2166,2166
2423,2117,2117
2424,2042,2042
2425,1999,1999
2426,1965,1965
2427,1937,1937
2428,1915,1915
2429,1854,1854
2430,1812,1812
2431,1807,1807
2432,1776,1776
2433,1723,1723
2434,1691,1691
2435,1669,1669
2436,1663,1663
2437,1628,1628
2438,1616,1616
2439,1582,1582
2440,1573,1573
2441,1570,1570
2442,1535,1535
2443,1594,1594
2444,1564,1564
2445,1596,1596
2446,1635,1635
2447,1616,1616
2448,1648,1648
2449,1665,1665
2450,1761,1761
2451,1868,1868
2452,2022,2022
2453,2133,2133
2454,2208,2208
2455,2241,2241
2456,2181,2181
2457,2127,2127
2458,2074,2074
2459,1995,1995
2460,1959,1959
2461,1911,1911
2462,1887,1887
2463,1827,1827
2464,1763,1763
2465,1703,1703
2466,1680,1680
2467,1675,1675
2468,1635,1635
2469,1632,1632
2470,1609,1609
2471,1568,1568
2472,1555,1555
2473,1554,1554
2474,1525,1525
2475,1523,1523
2476,1530,1530
2477,1515,1515
2478,1514,1514
2479,1509,1509
2480,1523,1523
2481,1535,1535
2482,1530,1530
2483,1559,1559
2484,1573,1573
2485,1577,1577
2486,1666,1666
2487,1763,1763
2488,1872,1872
2489,2006,2006
2490,2094,2094
2491,2122,2122
2492,2087,2087
2493,2060,2060
2494,1966,1966
2495,1945,1945
2496,1879,1879
2497,1834,1834
2498,1790,1790
2499,1755,1755
2500,1691,1691
2501,1670,1670
2502,1649,1649
2503,1665,1665
2504,1622,1622
2505,1616,1616
2506,1621,1621
2507,1590,1590
2508,1594,1594
2509,1535,1535
2510,1535,1535
2511,1535,1535
2512,1535,1535
2513,1529,1529
2514,1535,1535
2515,1557,1557
2516,1599,1599
2517,1579,1579
2518,1605,1605
2519,1575,1575
2520,1585,1585
2521,1611,1611
2522,1612,1612
2523,1632,1632
2524,1633,1633
2525,1696,1696
2526,1789,1789
2527,1893,1893
2528,1995,1995
2529,2067,2067
2530,2096,2096
2531,2068,2068
2532,2028,2028
2533,1973,1973
2534,1919,1919
2535,1882,1882
2536,1837,1837
2537,1837,1837
2538,1792,1792
2539,1749,1749
2540,1722,1722
2541,1718,1718
2542,1697,1697
2543,1690,1690
2544,1680,1680
2545,1661,1661
2546,1659,1659
2547,1654,1654
2548,1665,1665
2549,1664,1664
2550,1657,1657
2551,1667,1667
2552,1695,1695
2553,1687,1687
2554,1706,1706
2555,1719,1719
2556,1711,1711
2557,1729,1729
2558,1722,1722
2559,1745,1745
2560,1747,1747
2561,1747,1747
2562,1755,1755
2563,1755,1755
2564,1780,1780
2565,1789,1789
2566,1840,1840
2567,1927,1927
2568,2001,2001
2569,2076,2076
2570,2097,2097
2571,2100,2100
2572,2047,2047
2573,2016,2016
2574,1945,1945
2575,1895,1895
2576,1866,1866
2577,1820,1820
2578,1809,1809
2579,1796,1796
2580,1774,1774
2581,1744,1744
2582,1735,1735
2583,1747,1747
2584,1723,1723
2585,1743,1743
2586,1716,1716
2587,1729,1729
2588,1701,1701
2589,1707,1707
2590,1687,1687
2591,1699,1699
2592,1714,1714
2593,1699,1699
2594,1690,1690
2595,1680,1680
2596,1702,1702
2597,1728,1728
2598,1723,1723
2599,1744,1744
2600,1728,1728
2601,1755,1755
2602,1776,1776
2603,1808,1808
2604,1878,1878
2605,1949,1949
2606,1984,1984
2607,1997,1997
2608,2007,2007
2609,1962,1962
2610,1911,1911
2611,1859,1859
2612,1856,1856
2613,1825,1825
2614,1798,1798
2615,1777,1777
2616,1773,1773
2617,1755,1755
2618,1758,1758
2619,1761,1761
2620,1748,1748
2621,1765,1765
2622,1763,1763
2623,1763,1763
2624,1746,1746
2625,1739,1739
2626,1737,1737
2627,1731,1731
2628,1758,1758
2629,1734,1734
2630,1714,1714
2631,1758,1758
2632,1734,1734
2633,1749,1749
2634,1741,1741
2635,1757,1757
2636,1778,1778
2637,1810,1810
2638,1857,1857
2639,1933,1933
2640,1977,1977
2641,1998,1998
2642,2015,2015
2643,1983,1983
2644,1968,1968
2645,1936,1936
2646,1899,1899
2647,1886,1886
2648,1850,1850
2649,1853,1853
2650,1835,1835
2651,1823,1823
2652,1811,1811
2653,1808,1808
2654,1808,1808
2655,1809,1809
2656,1777,1777
2657,1802,1802
2658,1792,1792
2659,1792,1792
2660,1778,1778
2661,1774,1774
2662,1763,1763
2663,1761,1761
2664,1755,1755
2665,1779,1779
2666,1754,1754
2667,1764,1764
2668,1776,1776
2669,1815,1815
2670,1797,1797
2671,1802,1802
2672,1789,1789
2673,1799,1799
2674,1875,1875
2675,1907,1907
2676,1968,1968
2677,2036,2036
2678,2014,2014
2679,2011,2011
2680,1995,1995
2681,1950,1950
2682,1934,1934
2683,1897,1897
2684,1893,1893
2685,1887,1887
2686,1862,1862
2687,1849,1849
2688,1842,1842
2689,1840,1840
2690,1830,1830
2691,1821,1821
2692,1805,1805
2693,1827,1827
2694,1818,1818
2695,1830,1830
2696,1811,1811
2697,1803,1803
2698,1807,1807
2699,1776,1776
2700,1769,1769
2701,1777,1777
2702,1789,1789
2703,1760,1760
2704,1777,1777
2705,1762,1762
2706,1795,1795
2707,1789,1789
2708,1805,1805
2709,1817,1817
2710,1837,1837
2711,1846,1846
2712,1887,1887
2713,1943,1943
2714,1985,1985
2715,2005,2005
2716,2000,2000
2717,2006,2006
2718,1961,1961
2719,1940,1940
2720,1908,1908
2721,1891,1891
2722,1851,1851
2723,1845,1845
2724,1853,1853
2725,1842,1842
2726,1840,1840
2727,1837,1837
2728,1817,1817
2729,1815,1815
2730,1827,1827
2731,1825,1825
2732,1821,1821
2733,1822,1822
2734,1799,1799
2735,1824,1824
2736,1808,1808
2737,1827,1827
2738,1806,1806
2739,1806,1806
2740,1808,1808
2741,1809,1809
2742,1827,1827
2743,1826,1826
2744,1818,1818
2745,1843,1843
2746,1847,1847
2747,1863,1863
2748,1894,1894
2749,1949,1949
2750,1988,1988
2751,2015,2015
2752,2039,2039
2753,2029,2029
2754,2029,2029
2755,1953,1953
2756,1906,1906
2757,1909,1909
2758,1882,1882
2759,1873,1873
2760,1872,1872
2761,1830,1830
2762,1845,1845
2763,1846,1846
2764,1823,1823
2765,1822,1822
2766,1823,1823
2767,1849,1849
2768,1813,1813
2769,1825,1825
2770,1813,1813
2771,1801,1801
2772,1840,1840
2773,1815,1815
2774,1805,1805
2775,1789,1789
2776,1810,1810
2777,1799,1799
2778,1819,1819
2779,1819,1819
2780,1805,1805
2781,1807,1807
2782,1805,1805
2783,1867,1867
2784,1923,1923
2785,1951,1951
2786,1987,1987
2787,2011,2011
2788,1994,1994
2789,1958,1958
2790,1894,1894
2791,1866,1866
2792,1849,1849
2793,1837,1837
2794,1835,1835
2795,1807,1807
2796,1845,1845
2797,1829,1829
2798,1825,1825
2799,1815,1815
2800,1855,1855
2801,1835,1835
2802,1831,1831
2803,1849,1849
2804,1840,1840
2805,1828,1828
2806,1819,1819
2807,1838,1838
2808,1827,1827
2809,1834,1834
2810,1814,1814
2811,1824,1824
2812,1835,1835
2813,1840,1840
2814,1822,1822
2815,1842,1842
2816,1879,1879
2817,1904,1904
2818,1968,1968
2819,2027,2027
2820,2065,2065
2821,2082,2082
2822,2046,2046
2823,2038,2038
2824,2004,2004
2825,1963,1963
2826,1931,1931
2827,1935,1935
2828,1914,1914
2829,1906,1906
2830,1895,1895
2831,1875,1875
2832,1872,1872
2833,1860,1860
2834,1899,1899
2835,1866,1866
2836,1863,1863
2837,1857,1857
2838,1877,1877
2839,1863,1863
2840,1874,1874
2841,1883,1883
2842,1867,1867
2843,1851,1851
2844,1849,1849
2845,1848,1848
2846,1862,1862
2847,1858,1858
2848,1879,1879
2849,1883,1883
2850,1850,1850
2851,1872,1872
2852,1885,1885
2853,1887,1887
2854,1918,1918
2855,1971,1971
2856,2015,2015
2857,2112,2112
2858,2127,2127
2859,2161,2161
2860,2128,2128
2861,2096,2096
2862,2042,2042
2863,1991,1991
2864,1974,1974
2865,1927,1927
2866,1911,1911
2867,1893,1893
2868,1894,1894
2869,1872,1872
2870,1853,1853
2871,1834,1834
2872,1845,1845
2873,1838,1838
2874,1838,1838
2875,1812,1812
2876,1814,1814
2877,1815,1815
2878,1826,1826
2879,1808,1808
2880,1808,1808
2881,1802,1802
2882,1801,1801
2883,1831,1831
2884,1808,1808
2885,1810,1810
2886,1825,1825
2887,1830,1830
2888,1840,1840
2889,1840,1840
2890,1846,1846
2891,1840,1840
2892,1842,1842
2893,1862,1862
2894,1897,1897
2895,1968,1968
2896,2035,2035
2897,2086,2086
2898,2143,2143
2899,2148,2148
2900,2112,2112
2901,2087,2087
2902,2027,2027
2903,1967,1967
2904,1941,1941
2905,1936,1936
2906,1890,1890
2907,1893,1893
2908,1846,1846
2909,1845,1845
2910,1841,1841
2911,1838,1838
2912,1841,1841
2913,1833,1833
2914,1837,1837
2915,1825,1825
2916,1823,1823
2917,1814,1814
2918,1798,1798
2919,1794,1794
2920,1818,1818
2921,1821,1821
2922,1790,1790
2923,1824,1824
2924,1827,1827
2925,1807,1807
2926,1825,1825
2927,1810,1810
2928,1845,1845
2929,1837,1837
2930,1850,1850
2931,1824,1824
2932,1872,1872
2933,1898,1898
2934,1959,1959
2935,2023,2023
2936,2069,2069
2937,2119,2119
2938,2142,2142
2939,2109,2109
2940,2064,2064
2941,2019,2019
2942,1958,1958
2943,1955,1955
2944,1924,1924
2945,1889,1889
2946,1872,1872
2947,1840,1840
2948,1859,1859
2949,1830,1830
2950,1862,1862
2951,1841,1841
2952,1822,1822
2953,1870,1870
2954,1861,1861
2955,1837,1837
2956,1840,1840
2957,1830,1830
2958,1843,1843
2959,1831,1831
2960,1842,1842
2961,1821,1821
2962,1834,1834
2963,1817,1817
2964,1830,1830
2965,1839,1839
2966,1862,1862
2967,1863,1863
2968,1840,1840
2969,1865,1865
2970,1874,1874
2971,1951,1951
2972,2023,2023
2973,2098,2098
2974,2143,2143
2975,2133,2133
2976,2101,2101
2977,2090,2090
2978,2045,2045
2979,1981,1981
2980,1939,1939
2981,1907,1907
2982,1887,1887
2983,1858,1858
2984,1847,1847
2985,1853,1853
2986,1839,1839
2987,1840,1840
2988,1842,1842
2989,1856,1856
2990,1837,1837
2991,1831,1831
2992,1855,1855
2993,1815,1815
2994,1825,1825
2995,1807,1807
2996,1805,1805
2997,1819,1819
2998,1797,1797
2999,1835,1835
3000,1840,1840
3001,1841,1841
3002,1846,1846
3003,1830,1830
3004,1840,1840
3005,1858,1858
3006,1921,1921
3007,1997,1997
3008,2077,2077
3009,2120,2120
3010,2162,2162
3011,2157,2157
3012,2112,2112
3013,2062,2062
3014,2026,2026
3015,1961,1961
3016,1951,1951
3017,1907,1907
3018,1900,1900
3019,1859,1859
3020,1848,1848
3021,1837,1837
3022,1851,1851
3023,1840,1840
3024,1827,1827
3025,1815,1815
3026,1836,1836
3027,1811,1811
3028,1813,1813
3029,1808,1808
3030,1783,1783
3031,1791,1791
3032,1774,1774
3033,1767,1767
3034,1799,1799
3035,1773,1773
3036,1780,1780
3037,1802,1802
3038,1810,1810
3039,1814,1814
3040,1825,1825
3041,1846,1846
3042,1910,1910
3043,1984,1984
3044,2096,2096
3045,2149,2149
3046,2170,2170
3047,2160,2160
3048,2160,2160
3049,2085,2085
3050,2064,2064
3051,2021,2021
3052,1966,1966
3053,1936,1936
3054,1917,1917
3055,1870,1870
3056,1858,1858
3057,1821,1821
3058,1812,1812
3059,1827,1827
3060,1787,1787
3061,1794,1794
3062,1799,1799
3063,1794,1794
3064,1775,1775
3065,1781,1781
3066,1766,1766
3067,1776,1776
3068,1771,1771
3069,1766,1766
3070,1803,1803
3071,1781,1781
3072,1781,1781
3073,1798,1798
3074,1795,1795
3075,1794,1794
3076,1794,1794
3077,1805,1805
3078,1821,1821
3079,1839,1839
3080,1938,1938
3081,2034,2034
3082,2118,2118
3083,2178,2178
3084,2191,2191
3085,2189,2189
3086,2144,2144
3087,2079,2079
3088,2027,2027
3089,2005,2005
3090,1958,1958
3091,1922,1922
3092,1891,1891
3093,1861,1861
3094,1840,1840
3095,1810,1810
3096,1815,1815
3097,1809,1809
3098,1794,1794
3099,1797,1797
3100,1786,1786
3101,1789,1789
3102,1770,1770
3103,1761,1761
3104,1745,1745
3105,1745,1745
3106,1737,1737
3107,1734,1734
3108,1761,1761
3109,1755,1755
3110,1766,1766
3111,1746,1746
3112,1776,1776
3113,1794,1794
3114,1762,1762
3115,1787,1787
3116,1813,1813
3117,1830,1830
3118,1888,1888
3119,1967,1967
3120,2078,2078
3121,2138,2138
3122,2186,2186
3123,2187,2187
3124,2131,2131
3125,2087,2087
3126,2032,2032
3127,1987,1987
3128,1959,1959
3129,1905,1905
3130,1856,1856
3131,1847,1847
3132,1811,1811
3133,1794,1794
3134,1797,1797
3135,1791,1791
3136,1797,1797
3137,1782,1782
3138,1761,1761
3139,1790,1790
3140,1783,1783
3141,1767,1767
3142,1746,1746
3143,1748,1748
3144,1744,1744
3145,1737,1737
3146,1744,1744
3147,1728,1728
3148,1730,1730
3149,1738,1738
3150,1717,1717
3151,1774,1774
3152,1778,1778
3153,1785,1785
3154,1790,1790
3155,1840,1840
3156,1925,1925
3157,2002,2002
3158,2083,2083
3159,2128,2128
3160,2152,2152
3161,2116,2116
3162,2071,2071
3163,2032,2032
3164,1973,1973
3165,1924,1924
3166,1883,1883
3167,1853,1853
3168,1835,1835
3169,1818,1818
3170,1802,1802
3171,1804,1804
3172,1794,1794
3173,1814,1814
3174,1819,1819
3175,1803,1803
3176,1781,1781
3177,1776,1776
3178,1767,1767
3179,1781,1781
3180,1776,1776
3181,1757,1757
3182,1749,1749
3183,1745,1745
3184,1766,1766
3185,1744,1744
3186,1759,1759
3187,1757,1757
3188,1758,1758
3189,1767,1767
3190,1831,1831
3191,1911,1911
3192,1989,1989
3193,2063,2063
3194,2119,2119
3195,2132,2132
3196,2109,2109
3197,2046,2046
3198,1997,1997
3199,1945,1945
3200,1905,1905
3201,1902,1902
3202,1851,1851
3203,1819,1819
3204,1808,1808
3205,1787,1787
3206,1799,1799
3207,1777,1777
3208,1776,1776
3209,1762,1762
3210,1753,1753
3211,1758,1758
3212,1743,1743
3213,1738,1738
3214,1728,1728
3215,1737,1737
3216,1728,1728
3217,1703,1703
3218,1743,1743
3219,1744,1744
3220,1737,1737
3221,1767,1767
3222,1739,1739
3223,1760,1760
3224,1806,1806
3225,1853,1853
3226,1917,1917
3227,1995,1995
3228,2066,2066
3229,2134,2134
3230,2120,2120
3231,2129,2129
3232,2096,2096
3233,2000,2000
3234,1985,1985
3235,1935,1935
3236,1901,1901
3237,1891,1891
3238,1845,1845
3239,1803,1803
3240,1795,1795
3241,1790,1790
3242,1775,1775
3243,1773,1773
3244,1766,1766
3245,1763,1763
3246,1765,1765
3247,1750,1750
3248,1737,1737
3249,1755,1755
3250,1733,1733
3251,1735,1735
3252,1747,1747
3253,1735,1735
3254,1742,1742
3255,1747,1747
3256,1758,1758
3257,1760,1760
3258,1765,1765
3259,1756,1756
3260,1779,1779
3261,1797,1797
3262,1803,1803
3263,1882,1882
3264,1951,1951
3265,2083,2083
3266,2112,2112
3267,2159,2159
3268,2160,2160
3269,2118,2118
3270,2029,2029
3271,1965,1965
3272,1946,1946
3273,1889,1889
3274,1884,1884
3275,1833,1833
3276,1816,1816
3277,1808,1808
3278,1781,1781
3279,1794,1794
3280,1757,1757
3281,1774,1774
3282,1761,1761
3283,1794,1794
3284,1751,1751
3285,1764,1764
3286,1741,1741
3287,1748,1748
3288,1744,1744
3289,1747,1747
3290,1716,1716
3291,1741,1741
3292,1744,1744
3293,1770,1770
3294,1733,1733
3295,1744,1744
3296,1746,1746
3297,1754,1754
3298,1767,1767
3299,1751,1751
3300,1779,1779
3301,1825,1825
3302,1889,1889
3303,2000,2000
3304,2083,2083
3305,2112,2112
3306,2148,2148
3307,2111,2111
3308,2069,2069
3309,2019,2019
3310,1965,1965
3311,1923,1923
3312,1899,1899
3313,1886,1886
3314,1840,1840
3315,1810,1810
3316,1779,1779
3317,1776,1776
3318,1771,1771
3319,1778,1778
3320,1784,1784
3321,1761,1761
3322,1761,1761
3323,1745,1745
3324,1755,1755
3325,1766,1766
3326,1732,1732
3327,1738,1738
3328,1761,1761
3329,1727,1727
3330,1725,1725
3331,1742,1742
3332,1757,1757
3333,1751,1751
3334,1745,1745
3335,1754,1754
3336,1776,1776
3337,1776,1776
3338,1785,1785
3339,1797,1797
3340,1835,1835
3341,1917,1917
3342,2027,2027
3343,2075,2075
3344,2110,2110
3345,2096,2096
3346,2094,2094
3347,2035,2035
3348,1968,1968
3349,1921,1921
3350,1879,1879
3351,1871,1871
3352,1836,1836
3353,1821,1821
3354,1792,1792
3355,1789,1789
3356,1791,1791
3357,1762,1762
3358,1776,1776
3359,1775,1775
3360,1766,1766
3361,1750,1750
3362,1774,1774
3363,1770,1770
3364,1766,1766
3365,1776,1776
3366,1772,1772
3367,1762,1762
3368,1747,1747
3369,1772,1772
3370,1770,1770
3371,1785,1785
3372,1776,1776
3373,1809,1809
3374,1839,1839
3375,1825,1825
3376,1856,1856
3377,1899,1899
3378,1968,1968
3379,2032,2032
3380,2119,2119
3381,2125,2125
3382,2103,2103
3383,2081,2081
3384,2016,2016
3385,1985,1985
3386,1930,1930
3387,1885,1885
3388,1856,1856
3389,1807,1807
3390,1803,1803
3391,1789,1789
3392,1794,1794
3393,1805,1805
3394,1779,1779
3395,1781,1781
3396,1797,1797
3397,1765,1765
3398,1781,1781
3399,1758,1758
3400,1753,1753
3401,1741,1741
3402,1744,1744
3403,1747,1747
3404,1749,1749
3405,1733,1733
3406,1746,1746
3407,1751,1751
3408,1776,1776
3409,1775,1775
3410,1776,1776
3411,1815,1815
3412,1859,1859
3413,1945,1945
3414,2046,2046
3415,2112,2112
3416,2123,2123
3417,2133,2133
3418,2117,2117
3419,2047,2047
3420,1989,1989
3421,1936,1936
3422,1906,1906
3423,1875,1875
3424,1863,1863
3425,1807,1807
3426,1810,1810
3427,1783,1783
3428,1786,1786
3429,1762,1762
3430,1773,1773
3431,1767,1767
3432,1753,1753
3433,1749,1749
3434,1744,1744
3435,1723,1723
3436,1708,1708
3437,1730,1730
3438,1719,1719
3439,1728,1728
3440,1743,1743
3441,1735,1735
3442,1746,1746
3443,1723,1723
3444,1738,1738
3445,1747,1747
3446,1753,1753
3447,1810,1810
3448,1842,1842
3449,1918,1918
3450,2034,2034
3451,2126,2126
3452,2206,2206
3453,2193,2193
3454,2167,2167
3455,2099,2099
3456,2034,2034
3457,1979,1979
3458,1953,1953
3459,1904,1904
3460,1879,1879
3461,1840,1840
3462,1819,1819
3463,1803,1803
3464,1807,1807
3465,1767,1767
3466,1799,1799
3467,1756,1756
3468,1764,1764
3469,1746,1746
3470,1734,1734
3471,1734,1734
3472,1729,1729
3473,1712,1712
3474,1705,1705
3475,1693,1693
3476,1715,1715
3477,1706,1706
3478,1712,1712
3479,1712,1712
3480,1731,1731
3481,1734,1734
3482,1771,1771
3483,1755,1755
3484,1765,1765
3485,1789,1789
3486,1890,1890
3487,1968,1968
3488,2128,2128
3489,2215,2215
3490,2270,2270
3491,2261,2261
3492,2229,2229
3493,2182,2182
3494,2142,2142
3495,2086,2086
3496,2032,2032
3497,2002,2002
3498,1958,1958
3499,1911,1911
3500,1875,1875
3501,1841,1841
3502,1825,1825
3503,1795,1795
3504,1765,1765
3505,1741,1741
3506,1709,1709
3507,1648,1648
3508,1634,1634
3509,1644,1644
3510,1613,1613
3511,1613,1613
3512,1590,1590
3513,1606,1606
3514,1620,1620
3515,1616,1616
3516,1637,1637
3517,1658,1658
3518,1650,1650
3519,1659,1659
3520,1669,1669
3521,1714,1714
3522,1814,1814
3523,1963,1963
3524,2083,2083
3525,2177,2177
3526,2259,2259
3527,2229,2229
3528,2171,2171
3529,2117,2117
3530,2018,2018
3531,1930,1930
3532,1861,1861
3533,1792,1792
3534,1709,1709
3535,1691,1691
3536,1651,1651
3537,1647,1647
3538,1647,1647
3539,1630,1630
3540,1618,1618
3541,1639,1639
3542,1618,1618
3543,1616,1616
3544,1589,1589
3545,1589,1589
3546,1600,1600
3547,1570,1570
3548,1605,1605
3549,1583,1583
3550,1570,1570
3551,1591,1591
3552,1586,1586
3553,1619,1619
3554,1617,1617
3555,1634,1634
3556,1701,1701
3557,1829,1829
3558,2005,2005
3559,2133,2133
3560,2219,2219
3561,2272,2272
3562,2199,2199
3563,2157,2157
3564,2064,2064
3565,1991,1991
3566,1939,1939
3567,1849,1849
3568,1790,1790
3569,1742,1742
3570,1722,1722
3571,1712,1712
3572,1681,1681
3573,1675,1675
3574,1664,1664
3575,1655,1655
3576,1633,1633
3577,1623,1623
3578,1598,1598
3579,1608,1608
3580,1604,1604
3581,1585,1585
3582,1571,1571
3583,1567,1567
3584,1535,1535
3585,1566,1566
3586,1529,1529
3587,1534,1534
3588,1569,1569
3589,1616,1616
3590,1722,1722
3591,1909,1909
3592,2016,2016
3593,2111,2111
3594,2142,2142
3595,2104,2104
3596,2032,2032
3597,1941,1941
3598,1867,1867
3599,1806,1806
3600,1753,1753
3601,1713,1713
3602,1665,1665
3603,1637,1637
3604,1635,1635
3605,1632,1632
3606,1629,1629
3607,1615,1615
3608,1629,1629
3609,1610,1610
3610,1584,1584
3611,1598,1598
3612,1572,1572
3613,1520,1520
3614,1529,1529
3615,1515,1515
3616,1488,1488
3617,1491,1491
3618,1503,1503
3619,1504,1504
3620,1566,1566
3621,1664,1664
3622,1839,1839
3623,1984,1984
3624,2077,2077
3625,2190,2190
3626,2187,2187
3627,2147,2147
3628,2087,2087
3629,1987,1987
3630,1904,1904
3631,1819,1819
3632,1765,1765
3633,1701,1701
3634,1639,1639
3635,1596,1596
3636,1584,1584
3637,1535,1535
3638,1535,1535
3639,1533,1533
3640,1520,1520
3641,1523,1523
3642,1494,1494
3643,1470,1470
3644,1463,1463
3645,1456,1456
3646,1426,1426
3647,1441,1441
3648,1421,1421
3649,1424,1424
3650,1456,1456
3651,1439,1439
3652,1501,1501
3653,1600,1600
3654,1785,1785
3655,1923,1923
3656,2087,2087
3657,2160,2160
3658,2168,2168
3659,2112,2112
3660,2028,2028
3661,1956,1956
3662,1903,1903
3663,1840,1840
3664,1787,1787
3665,1697,1697
3666,1653,1653
3667,1606,1606
3668,1572,1572
3669,1522,1522
3670,1535,1535
3671,1483,1483
3672,1462,1462
3673,1472,1472
3674,1431,1431
3675,1420,1420
3676,1440,1440
3677,1429,1429
3678,1406,1406
3679,1439,1439
3680,1427,1427
3681,1408,1408
3682,1404,1404
3683,1429,1429
3684,1449,1449
3685,1471,1471
3686,1481,1481
3687,1557,1557
3688,1710,1710
3689,1886,1886
3690,2037,2037
3691,2178,2178
3692,2182,2182
3693,2144,2144
3694,2091,2091
3695,2006,2006
3696,1917,1917
3697,1866,1866
3698,1808,1808
3699,1759,1759
3700,1727,1727
3701,1670,1670
3702,1600,1600
3703,1571,1571
3704,1568,1568
3705,1535,1535
3706,1563,1563
3707,1535,1535
3708,1520,1520
3709,1535,1535
3710,1494,1494
3711,1500,1500
3712,1477,1477
3713,1474,1474
3714,1488,1488
3715,1451,1451
3716,1498,1498
3717,1485,1485
3718,1483,1483
3719,1508,1508
3720,1535,1535
3721,1519,1519
3722,1557,1557
3723,1526,1526
3724,1556,1556
3725,1574,1574
3726,1601,1601
3727,1702,1702
3728,1843,1843
3729,2015,2015
3730,2151,2151
3731,2234,2234
3732,2243,2243
3733,2179,2179
3734,2098,2098
3735,2000,2000
3736,1904,1904
3737,1869,1869
3738,1793,1793
3739,1766,1766
3740,1713,1713
3741,1654,1654
3742,1615,1615
3743,1597,1597
3744,1600,1600
3745,1616,1616
3746,1597,1597
3747,1577,1577
3748,1584,1584
3749,1561,1561
3750,1556,1556
3751,1554,1554
3752,1513,1513
3753,1535,1535
3754,1535,1535
3755,1567,1567
3756,1535,1535
3757,1574,1574
3758,1535,1535
3759,1572,1572
3760,1582,1582
3761,1590,1590
3762,1590,1590
3763,1618,1618
3764,1616,1616
3765,1622,1622
3766,1648,1648
3767,1712,1712
3768,1811,1811
3769,1950,1950
3770,2112,2112
3771,2164,2164
3772,2161,2161
3773,2126,2126
3774,2039,2039
3775,1965,1965
3776,1903,1903
3777,1836,1836
3778,1802,1802
3779,1767,1767
3780,1711,1711
3781,1692,1692
3782,1655,1655
3783,1648,1648
3784,1659,1659
3785,1651,1651
3786,1661,1661
3787,1649,1649
3788,1655,1655
3789,1659,1659
3790,1648,1648
3791,1620,1620
3792,1622,1622
3793,1606,1606
3794,1616,1616
3795,1600,1600
3796,1609,1609
3797,1613,1613
3798,1617,1617
3799,1639,1639
3800,1634,1634
3801,1657,1657
3802,1652,1652
3803,1658,1658
3804,1680,1680
3805,1713,1713
3806,1789,1789
3807,1870,1870
3808,1968,1968
3809,2023,2023
3810,1994,1994
3811,1990,1990
3812,1965,1965
3813,1883,1883
3814,1839,1839
3815,1806,1806
3816,1773,1773
3817,1751,1751
3818,1731,1731
3819,1718,1718
3820,1701,1701
3821,1711,1711
3822,1711,1711
3823,1725,1725
3824,1728,1728
3825,1726,1726
3826,1732,1732
3827,1712,1712
3828,1707,1707
3829,1697,1697
3830,1699,1699
3831,1689,1689
3832,1695,1695
3833,1680,1680
3834,1684,1684
3835,1677,1677
3836,1693,1693
3837,1690,1690
3838,1699,1699
3839,1728,1728
3840,1763,1763
3841,1808,1808
3842,1887,1887
3843,1930,1930
3844,1968,1968
3845,2000,2000
3846,1981,1981
3847,1956,1956
3848,1916,1916
3849,1863,1863
3850,1833,1833
3851,1809,1809
3852,1787,1787
3853,1767,1767
3854,1728,1728
3855,1745,1745
3856,1735,1735
3857,1725,1725
3858,1739,1739
3859,1717,1717
3860,1735,1735
3861,1744,1744
3862,1735,1735
3863,1715,1715
3864,1718,1718
3865,1717,1717
3866,1710,1710
3867,1714,1714
3868,1706,1706
3869,1717,1717
3870,1719,1719
3871,1703,1703
3872,1710,1710
3873,1729,1729
3874,1757,1757
3875,1797,1797
3876,1872,1872
3877,1935,1935
3878,1984,1984
3879,2019,2019
3880,2014,2014
3881,1999,1999
3882,1955,1955
3883,1949,1949
3884,1904,1904
3885,1860,1860
3886,1853,1853
3887,1811,1811
3888,1807,1807
3889,1779,1779
3890,1798,1798
3891,1765,1765
3892,1746,1746
3893,1757,1757
3894,1754,1754
3895,1759,1759
3896,1744,1744
3897,1729,1729
3898,1728,1728
3899,1744,1744
3900,1734,1734
3901,1730,1730
3902,1726,1726
3903,1717,1717
3904,1744,1744
3905,1729,1729
3906,1747,1747
3907,1742,1742
3908,1771,1771
3909,1735,1735
3910,1753,1753
3911,1826,1826
3912,1902,1902
3913,1969,1969
3914,1999,1999
3915,2023,2023
3916,2027,2027
3917,1978,1978
3918,1965,1965
3919,1899,1899
3920,1858,1858
3921,1853,1853
3922,1849,1849
3923,1829,1829
3924,1795,1795
3925,1776,1776
3926,1776,1776
3927,1765,1765
3928,1782,1782
3929,1783,1783
3930,1792,1792
3931,1771,1771
3932,1771,1771
3933,1776,1776
3934,1773,1773
3935,1766,1766
3936,1742,1742
3937,1755,1755
3938,1746,1746
3939,1749,1749
3940,1747,1747
3941,1762,1762
3942,1749,1749
3943,1776,1776
3944,1775,1775
3945,1777,1777
3946,1794,1794
3947,1806,1806
3948,1856,1856
3949,1935,1935
3950,1990,1990
3951,2035,2035
3952,2063,2063
3953,2083,2083
3954,2063,2063
3955,2003,2003
3956,1967,1967
3957,1911,1911
3958,1878,1878
3959,1874,1874
3960,1856,1856
3961,1826,1826
3962,1815,1815
3963,1794,1794
3964,1779,1779
3965,1786,1786
3966,1791,1791
3967,1818,1818
3968,1807,1807
3969,1808,1808
3970,1808,1808
3971,1797,1797
3972,1792,1792
3973,1808,1808
3974,1808,1808
3975,1811,1811
3976,1813,1813
3977,1793,1793
3978,1815,1815
3979,1821,1821
3980,1817,1817
3981,1815,1815
3982,1832,1832
3983,1855,1855
3984,1877,1877
3985,1939,1939
3986,2018,2018
3987,2067,2067
3988,2047,2047
3989,2029,2029
3990,2001,2001
3991,1956,1956
3992,1904,1904
3993,1904,1904
3994,1872,1872
3995,1849,1849
3996,1845,1845
3997,1831,1831
3998,1814,1814
3999,1833,1833
4000,1833,1833
4001,1831,1831
4002,1839,1839
4003,1838,1838
4004,1814,1814
4005,1815,1815
4006,1809,1809
4007,1808,1808
4008,1783,1783
4009,1787,1787
4010,1794,1794
4011,1795,1795
4012,1793,1793
4013,1804,1804
4014,1805,1805
4015,1788,1788
4016,1823,1823
4017,1808,1808
4018,1855,1855
4019,1904,1904
4020,2005,2005
4021,2074,2074
4022,2139,2139
4023,2137,2137
4024,2108,2108
4025,2094,2094
4026,2035,2035
4027,1993,1993
4028,1949,1949
4029,1930,1930
4030,1899,1899
4031,1870,1870
4032,1840,1840
4033,1846,1846
4034,1827,1827
4035,1835,1835
4036,1803,1803
4037,1840,1840
4038,1803,1803
4039,1801,1801
4040,1803,1803
4041,1777,1777
4042,1794,1794
4043,1798,1798
4044,1776,1776
4045,1776,1776
4046,1797,1797
4047,1775,1775
4048,1777,1777
4049,1775,1775
4050,1778,1778
4051,1805,1805
4052,1804,1804
4053,1815,1815
4054,1854,1854
4055,1909,1909
4056,1996,1996
4057,2080,2080
4058,2130,2130
4059,2129,2129
4060,2141,2141
4061,2100,2100
4062,2047,2047
4063,1981,1981
4064,1939,1939
4065,1951,1951
4066,1901,1901
4067,1855,1855
4068,1877,1877
4069,1846,1846
4070,1834,1834
4071,1847,1847
4072,1840,1840
4073,1825,1825
4074,1809,1809
4075,1791,1791
4076,1803,1803
4077,1789,1789
4078,1759,1759
4079,1781,1781
4080,1765,1765
4081,1750,1750
4082,1756,1756
4083,1744,1744
4084,1738,1738
4085,1742,1742
4086,1745,1745
4087,1758,1758
4088,1744,1744
4089,1771,1771
4090,1776,1776
4091,1840,1840
4092,1927,1927
4093,2032,2032
4094,2134,2134
4095,2160,2160
4096,2169,2169
4097,2141,2141
4098,2090,2090
4099,2057,2057
4100,1995,1995
4101,1967,1967
4102,1927,1927
4103,1894,1894
4104,1858,1858
4105,1825,1825
4106,1830,1830
4107,1821,1821
4108,1805,1805
4109,1806,1806
4110,1808,1808
4111,1811,1811
4112,1779,1779
4113,1774,1774
4114,1761,1761
4115,1745,1745
4116,1765,1765
4117,1741,1741
4118,1726,1726
4119,1713,1713
4120,1731,1731
4121,1713,1713
4122,1712,1712
4123,1733,1733
4124,1729,1729
4125,1723,1723
4126,1762,1762
4127,1803,1803
4128,1904,1904
4129,1976,1976
4130,2085,2085
4131,2155,2155
4132,2163,2163
4133,2136,2136
4134,2095,2095
4135,2029,2029
4136,1987,1987
4137,1923,1923
4138,1879,1879
4139,1851,1851
4140,1824,1824
4141,1807,1807
4142,1809,1809
4143,1778,1778
4144,1767,1767
4145,1781,1781
4146,1779,1779
4147,1780,1780
4148,1786,1786
4149,1767,1767
4150,1759,1759
4151,1744,1744
4152,1744,1744
4153,1740,1740
4154,1728,1728
4155,1734,1734
4156,1721,1721
4157,1743,1743
4158,1729,1729
4159,1740,1740
4160,1729,1729
4161,1795,1795
4162,1862,1862
4163,1981,1981
4164,2074,2074
4165,2154,2154
4166,2186,2186
4167,2173,2173
4168,2117,2117
4169,2064,2064
4170,1983,1983
4171,1939,1939
4172,1894,1894
4173,1840,1840
4174,1818,1818
4175,1783,1783
4176,1777,1777
4177,1764,1764
4178,1757,1757
4179,1757,1757
4180,1754,1754
4181,1726,1726
4182,1716,1716
4183,1719,1719
4184,1703,1703
4185,1710,1710
4186,1711,1711
4187,1703,1703
4188,1697,1697
4189,1717,1717
4190,1721,1721
4191,1700,1700
4192,1726,1726
4193,1729,1729
4194,1756,1756
4195,1849,1849
4196,1963,1963
4197,2102,2102
4198,2215,2215
4199,2240,2240
4200,2225,2225
4201,2211,2211
4202,2144,2144
4203,2089,2089
4204,2017,2017
4205,1968,1968
4206,1917,1917
4207,1872,1872
4208,1808,1808
4209,1751,1751
4210,1730,1730
4211,1703,1703
4212,1703,1703
4213,1680,1680
4214,1654,1654
4215,1635,1635
4216,1659,1659
4217,1650,1650
4218,1617,1617
4219,1616,1616
4220,1591,1591
4221,1582,1582
4222,1621,1621
4223,1616,1616
4224,1600,1600
4225,1599,1599
4226,1615,1615
4227,1616,1616
4228,1674,1674
4229,1744,1744
4230,1874,1874
4231,2042,2042
4232,2161,2161
4233,2277,2277
4234,2256,2256
4235,2203,2203
4236,2112,2112
4237,2047,2047
4238,1971,1971
4239,1933,1933
4240,1834,1834
4241,1803,1803
4242,1743,1743
4243,1697,1697
4244,1680,1680
4245,1652,1652
4246,1616,1616
4247,1632,1632
4248,1609,1609
4249,1632,1632
4250,1619,1619
4251,1601,1601
4252,1589,1589
4253,1604,1604
4254,1577,1577
4255,1581,1581
4256,1580,1580
4257,1591,1591
4258,1587,1587
4259,1595,1595
4260,1598,1598
4261,1605,1605
4262,1610,1610
4263,1629,1629
4264,1679,1679
4265,1747,1747
4266,1904,1904
4267,2032,2032
4268,2161,2161
4269,2219,2219
4270,2229,2229
4271,2186,2186
4272,2127,2127
4273,2026,2026
4274,1962,1962
4275,1904,1904
4276,1861,1861
4277,1806,1806
4278,1781,1781
4279,1757,1757
4280,1717,1717
4281,1712,1712
4282,1734,1734
4283,1692,1692
4284,1683,1683
4285,1651,1651
4286,1638,1638
4287,1626,1626
4288,1606,1606
4289,1589,1589
4290,1581,1581
4291,1584,1584
4292,1569,1569
4293,1577,1577
4294,1563,1563
4295,1584,1584
4296,1595,1595
4297,1585,1585
4298,1654,1654
4299,1753,1753
4300,1909,1909
4301,2032,2032
4302,2162,2162
4303,2193,2193
4304,2187,2187
4305,2139,2139
4306,2074,2074
4307,1995,1995
4308,1918,1918
4309,1862,1862
4310,1791,1791
4311,1745,1745
4312,1683,1683
4313,1670,1670
4314,1626,1626
4315,1623,1623
4316,1639,1639
4317,1610,1610
4318,1598,1598
4319,1587,1587
4320,1583,1583
4321,1578,1578
4322,1559,1559
4323,1572,1572
4324,1553,1553
4325,1555,1555
4326,1563,1563
4327,1534,1534
4328,1535,1535
4329,1529,1529
4330,1577,1577
4331,1623,1623
4332,1751,1751
4333,1895,1895
4334,2010,2010
4335,2113,2113
4336,2097,2097
4337,2073,2073
4338,1995,1995
4339,1889,1889
4340,1809,1809
4341,1751,1751
4342,1694,1694
4343,1623,1623
4344,1565,1565
4345,1535,1535
4346,1519,1519
4347,1509,1509
4348,1505,1505
4349,1491,1491
4350,1495,1495
4351,1497,1497
4352,1494,1494
4353,1498,1498
4354,1483,1483
4355,1475,1475
4356,1473,1473
4357,1476,1476
4358,1472,1472
4359,1479,1479
4360,1506,1506
4361,1498,1498
4362,1534,1534
4363,1606,1606
4364,1744,1744
4365,1906,1906
4366,2112,2112
4367,2246,2246
4368,2319,2319
4369,2285,2285
4370,2223,2223
4371,2128,2128
4372,2042,2042
4373,1959,1959
4374,1904,1904
4375,1799,1799
4376,1773,1773
4377,1746,1746
4378,1711,1711
4379,1667,1667
4380,1648,1648
4381,1629,1629
4382,1625,1625
4383,1606,1606
4384,1600,1600
4385,1531,1531
4386,1503,1503
4387,1488,1488
4388,1437,1437
4389,1426,1426
4390,1402,1402
4391,1389,1389
4392,1415,1415
4393,1421,1421
4394,1419,1419
4395,1424,1424
4396,1493,1493
4397,1631,1631
4398,1785,1785
4399,1938,1938
4400,2041,2041
4401,2100,2100
4402,2073,2073
4403,2032,2032
4404,1954,1954
4405,1885,1885
4406,1828,1828
4407,1765,1765
4408,1737,1737
4409,1668,1668
4410,1634,1634
4411,1595,1595
4412,1571,1571
4413,1564,1564
4414,1525,1525
4415,1554,1554
4416,1535,1535
4417,1525,1525
4418,1535,1535
4419,1519,1519
4420,1513,1513
4421,1503,1503
4422,1513,1513
4423,1509,1509
4424,1488,1488
4425,1498,1498
4426,1520,1520
4427,1510,1510
4428,1534,1534
4429,1558,1558
4430,1653,1653
4431,1713,1713
4432,1851,1851
4433,1982,1982
4434,2044,2044
4435,2085,2085
4436,2032,2032
4437,1996,1996
4438,1936,1936
4439,1872,1872
4440,1840,1840
4441,1794,1794
4442,1760,1760
4443,1730,1730
4444,1698,1698
4445,1630,1630
4446,1638,1638
4447,1635,1635
4448,1637,1637
4449,1653,1653
4450,1635,1635
4451,1615,1615
4452,1635,1635
4453,1622,1622
4454,1617,1617
4455,1637,1637
4456,1648,1648
4457,1632,1632
4458,1614,1614
4459,1652,1652
4460,1648,1648
4461,1669,1669
4462,1658,1658
4463,1690,1690
4464,1680,1680
4465,1699,1699
4466,1725,1725
4467,1798,1798
4468,1884,1884
4469,1979,1979
4470,2075,2075
4471,2081,2081
4472,2089,2089
4473,2014,2014
4474,1979,1979
4475,1936,1936
4476,1874,1874
4477,1842,1842
4478,1791,1791
4479,1776,1776
4480,1746,1746
4481,1751,1751
4482,1712,1712
4483,1712,1712
4484,1711,1711
4485,1695,1695
4486,1697,1697
4487,1676,1676
4488,1712,1712
4489,1683,1683
4490,1699,1699
4491,1685,1685
4492,1685,1685
4493,1681,1681
4494,1680,1680
4495,1691,1691
4496,1702,1702
4497,1696,1696
4498,1717,1717
4499,1728,1728
4500,1743,1743
4501,1738,1738
4502,1723,1723
4503,1731,1731
4504,1749,1749
4505,1774,1774
4506,1847,1847
4507,1887,1887
4508,1968,1968
4509,2028,2028
4510,2046,2046
4511,2032,2032
4512,1984,1984
4513,1941,1941
4514,1902,1902
4515,1869,1869
4516,1823,1823
4517,1822,1822
4518,1795,1795
4519,1780,1780
4520,1778,1778
4521,1758,1758
4522,1769,1769
4523,1744,1744
4524,1761,1761
4525,1761,1761
4526,1756,1756
4527,1754,1754
4528,1757,1757
4529,1771,1771
4530,1754,1754
4531,1744,1744
4532,1754,1754
4533,1744,1744
4534,1748,1748
4535,1751,1751
4536,1753,1753
4537,1770,1770
4538,1776,1776
4539,1793,1793
4540,1776,1776
4541,1764,1764
4542,1783,1783
4543,1776,1776
4544,1787,1787
4545,1847,1847
4546,1904,1904
4547,1968,1968
4548,1971,1971
4549,2002,2002
4550,1998,1998
4551,1980,1980
4552,1925,1925
4553,1895,1895
4554,1874,1874
4555,1866,1866
4556,1851,1851
4557,1835,1835
4558,1818,1818
4559,1815,1815
4560,1809,1809
4561,1805,1805
4562,1818,1818
4563,1829,1829
4564,1827,1827
4565,1806,1806
4566,1827,1827
4567,1799,1799
4568,1795,1795
4569,1825,1825
4570,1806,1806
4571,1803,1803
4572,1793,1793
4573,1799,1799
4574,1808,1808
4575,1807,1807
4576,1793,1793
4577,1810,1810
4578,1803,1803
4579,1827,1827
4580,1812,1812
4581,1825,1825
4582,1831,1831
4583,1889,1889
4584,1941,1941
4585,1979,1979
4586,2032,2032
4587,2010,2010
4588,1995,1995
4589,1975,1975
4590,1918,1918
4591,1882,1882
4592,1872,1872
4593,1870,1870
4594,1835,1835
4595,1840,1840
4596,1832,1832
4597,1840,1840
4598,1835,1835
4599,1841,1841
4600,1847,1847
4601,1839,1839
4602,1840,1840
4603,1839,1839
4604,1858,1858
4605,1828,1828
4606,1840,1840
4607,1825,1825
4608,1825,1825
4609,1822,1822
4610,1829,1829
4611,1837,1837
4612,1821,1821
4613,1818,1818
4614,1850,1850
4615,1863,1863
4616,1846,1846
4617,1839,1839
4618,1863,1863
4619,1903,1903
4620,1979,1979
4621,2018,2018
4622,2046,2046
4623,2063,2063
4624,2031,2031
4625,2005,2005
4626,1982,1982
4627,1937,1937
4628,1905,1905
4629,1904,1904
4630,1887,1887
4631,1872,1872
4632,1858,1858
4633,1835,1835
4634,1853,1853
4635,1841,1841
4636,1835,1835
4637,1851,1851
4638,1841,1841
4639,1840,1840
4640,1856,1856
4641,1826,1826
4642,1830,1830
4643,1835,1835
4644,1842,1842
4645,1824,1824
4646,1842,1842
4647,1852,1852
4648,1818,1818
4649,1847,1847
4650,1852,1852
4651,1839,1839
4652,1823,1823
4653,1840,1840
4654,1846,1846
4655,1890,1890
4656,1968,1968
4657,2001,2001
4658,2039,2039
4659,2046,2046
4660,2037,2037
4661,2015,2015
4662,2005,2005
4663,1961,1961
4664,1915,1915
4665,1904,1904
4666,1871,1871
4667,1871,1871
4668,1845,1845
4669,1845,1845
4670,1854,1854
4671,1841,1841
4672,1860,1860
4673,1855,1855
4674,1837,1837
4675,1875,1875
4676,1832,1832
4677,1839,1839
4678,1844,1844
4679,1831,1831
4680,1840,1840
4681,1851,1851
4682,1847,1847
4683,1851,1851
4684,1858,1858
4685,1849,1849
4686,1854,1854
4687,1855,1855
4688,1841,1841
4689,1866,1866
4690,1863,1863
4691,1890,1890
4692,1962,1962
4693,2011,2011
4694,2065,2065
4695,2101,2101
4696,2070,2070
4697,2042,2042
4698,2027,2027
4699,1987,1987
4700,1970,1970
4701,1919,1919
4702,1903,1903
4703,1890,1890
4704,1857,1857
4705,1859,1859
4706,1878,1878
4707,1870,1870
4708,1868,1868
4709,1858,1858
4710,1889,1889
4711,1857,1857
4712,1837,1837
4713,1855,1855
4714,1841,1841
4715,1858,1858
4716,1835,1835
4717,1823,1823
4718,1843,1843
4719,1830,1830
4720,1841,1841
4721,1854,1854
4722,1841,1841
4723,1866,1866
4724,1861,1861
4725,1877,1877
4726,1904,1904
4727,1983,1983
4728,2032,2032
4729,2067,2067
4730,2099,2099
4731,2083,2083
4732,2029,2029
4733,2001,2001
4734,1975,1975
4735,1943,1943
4736,1915,1915
4737,1901,1901
4738,1867,1867
4739,1863,1863
4740,1847,1847
4741,1856,1856
4742,1840,1840
4743,1860,1860
4744,1863,1863
4745,1858,1858
4746,1869,1869
4747,1840,1840
4748,1840,1840
4749,1847,1847
4750,1856,1856
4751,1825,1825
4752,1843,1843
4753,1823,1823
4754,1843,1843
4755,1838,1838
4756,1855,1855
4757,1835,1835
4758,1875,1875
4759,1904,1904
4760,1991,1991
4761,2079,2079
4762,2128,2128
4763,2138,2138
4764,2127,2127
4765,2096,2096
4766,2045,2045
4767,2002,2002
4768,1958,1958
4769,1950,1950
4770,1922,1922
4771,1903,1903
4772,1860,1860
4773,1858,1858
4774,1845,1845
4775,1846,1846
4776,1843,1843
4777,1841,1841
4778,1834,1834
4779,1814,1814
4780,1808,1808
4781,1816,1816
4782,1798,1798
4783,1782,1782
4784,1793,1793
4785,1780,1780
4786,1780,1780
4787,1791,1791
4788,1783,1783
4789,1776,1776
4790,1803,1803
4791,1821,1821
4792,1890,1890
4793,1968,1968
4794,2064,2064
4795,2143,2143
4796,2183,2183
4797,2171,2171
4798,2160,2160
4799,2107,2107
4800,2035,2035
4801,2025,2025
4802,1971,1971
4803,1945,1945
4804,1896,1896
4805,1865,1865
4806,1827,1827
4807,1811,1811
4808,1803,1803
4809,1808,1808
4810,1781,1781
4811,1776,1776
4812,1763,1763
4813,1741,1741
4814,1744,1744
4815,1729,1729
4816,1732,1732
4817,1724,1724
4818,1725,1725
4819,1717,1717
4820,1707,1707
4821,1717,1717
4822,1712,1712
4823,1717,1717
4824,1729,1729
4825,1724,1724
4826,1714,1714
4827,1758,1758
4828,1794,1794
4829,1898,1898
4830,1993,1993
4831,2094,2094
4832,2161,2161
4833,2201,2201
4834,2190,2190
4835,2138,2138
4836,2078,2078
4837,2034,2034
4838,1989,1989
4839,1962,1962
4840,1923,1923
4841,1883,1883
4842,1838,1838
4843,1823,1823
4844,1806,1806
4845,1792,1792
4846,1753,1753
4847,1745,1745
4848,1746,1746
4849,1751,1751
4850,1744,1744
4851,1717,1717
4852,1725,1725
4853,1714,1714
4854,1713,1713
4855,1712,1712
4856,1686,1686
4857,1703,1703
4858,1685,1685
4859,1697,1697
4860,1694,1694
4861,1690,1690
4862,1680,1680
4863,1696,1696
4864,1712,1712
4865,1715,1715
4866,1780,1780
4867,1872,1872
4868,1979,1979
4869,2078,2078
4870,2151,2151
4871,2181,2181
4872,2166,2166
4873,2121,2121
4874,2047,2047
4875,1974,1974
4876,1919,1919
4877,1895,1895
4878,1847,1847
4879,1797,1797
4880,1789,1789
4881,1742,1742
4882,1757,1757
4883,1747,1747
4884,1741,1741
4885,1727,1727
4886,1725,1725
4887,1717,1717
4888,1716,1716
4889,1714,1714
4890,1696,1696
4891,1701,1701
4892,1686,1686
4893,1683,1683
4894,1675,1675
4895,1669,1669
4896,1681,1681
4897,1666,1666
4898,1681,1681
4899,1680,1680
4900,1683,1683
4901,1705,1705
4902,1714,1714
4903,1793,1793
4904,1901,1901
4905,2018,2018
4906,2159,2159
4907,2221,2221
4908,2208,2208
4909,2182,2182
4910,2118,2118
4911,2031,2031
4912,2000,2000
4913,1936,1936
4914,1902,1902
4915,1853,1853
4916,1792,1792
4917,1775,1775
4918,1743,1743
4919,1727,1727
4920,1713,1713
4921,1717,1717
4922,1722,1722
4923,1701,1701
4924,1699,1699
4925,1680,1680
4926,1651,1651
4927,1653,1653
4928,1659,1659
4929,1663,1663
4930,1649,1649
4931,1648,1648
4932,1648,1648
4933,1618,1618
4934,1658,1658
4935,1632,1632
4936,1659,1659
4937,1668,1668
4938,1668,1668
4939,1681,1681
4940,1706,1706
4941,1681,1681
4942,1742,1742
4943,1783,1783
4944,1900,1900
4945,2031,2031
4946,2160,2160
4947,2215,2215
4948,2235,2235
4949,2206,2206
4950,2133,2133
4951,2042,2042
4952,1978,1978
4953,1907,1907
4954,1867,1867
4955,1831,1831
4956,1775,1775
4957,1757,1757
4958,1715,1715
4959,1721,1721
4960,1671,1671
4961,1681,1681
4962,1693,1693
4963,1667,1667
4964,1667,1667
4965,1657,1657
4966,1639,1639
4967,1637,1637
4968,1638,1638
4969,1607,1607
4970,1609,1609
4971,1615,1615
4972,1613,1613
4973,1605,1605
4974,1623,1623
4975,1617,1617
4976,1628,1628
4977,1652,1652
4978,1660,1660
4979,1678,1678
4980,1703,1703
4981,1699,1699
4982,1698,1698
4983,1735,1735
4984,1846,1846
4985,1936,1936
4986,2033,2033
4987,2134,2134
4988,2151,2151
4989,2145,2145
4990,2090,2090
4991,2017,2017
4992,1967,1967
4993,1911,1911
4994,1826,1826
4995,1806,1806
4996,1769,1769
4997,1744,1744
4998,1711,1711
4999,1702,1702
5000,1707,1707
5001,1681,1681
5002,1712,1712
5003,1693,1693
5004,1695,1695
5005,1687,1687
5006,1666,1666
5007,1679,1679
5008,1695,1695
5009,1665,1665
5010,1662,1662
5011,1665,1665
5012,1680,1680
5013,1680,1680
5014,1683,1683
5015,1690,1690
5016,1683,1683
5017,1693,1693
5018,1728,1728
5019,1727,1727
5020,1739,1739
5021,1751,1751
5022,1802,1802
5023,1877,1877
5024,1975,1975
5025,2082,2082
5026,2150,2150
5027,2170,2170
5028,2131,2131
5029,2094,2094
5030,2005,2005
5031,1943,1943
5032,1909,1909
5033,1873,1873
5034,1811,1811
5035,1795,1795
5036,1776,1776
5037,1746,1746
5038,1739,1739
5039,1746,1746
5040,1712,1712
5041,1727,1727
5042,1714,1714
5043,1723,1723
5044,1734,1734
5045,1719,1719
5046,1689,1689
5047,1701,1701
5048,1698,1698
5049,1699,1699
5050,1686,1686
5051,1709,1709
5052,1715,1715
5053,1695,1695
5054,1708,1708
5055,1711,1711
5056,1742,1742
5057,1731,1731
5058,1741,1741
5059,1751,1751
5060,1757,1757
5061,1821,1821
5062,1921,1921
5063,2019,2019
5064,2109,2109
5065,2193,2193
5066,2198,2198
5067,2161,2161
5068,2110,2110
5069,2023,2023
5070,1974,1974
5071,1927,1927
5072,1875,1875
5073,1837,1837
5074,1823,1823
5075,1794,1794
5076,1754,1754
5077,1738,1738
5078,1726,1726
5079,1739,1739
5080,1750,1750
5081,1721,1721
5082,1723,1723
5083,1714,1714
5084,1701,1701
5085,1693,1693
5086,1709,1709
5087,1703,1703
5088,1677,1677
5089,1691,1691
5090,1707,1707
5091,1680,1680
5092,1684,1684
5093,1715,1715
5094,1702,1702
5095,1700,1700
5096,1737,1737
5097,1750,1750
5098,1759,1759
5099,1765,1765
5100,1801,1801
5101,1858,1858
5102,1984,1984
5103,2075,2075
5104,2141,2141
5105,2158,2158
5106,2128,2128
5107,2084,2084
5108,2031,2031
5109,1963,1963
5110,1919,1919
5111,1856,1856
5112,1804,1804
5113,1793,1793
5114,1780,1780
5115,1754,1754
5116,1741,1741
5117,1755,1755
5118,1742,1742
5119,1744,1744
5120,1744,1744
5121,1744,1744
5122,1728,1728
5123,1727,1727
5124,1719,1719
5125,1717,1717
5126,1722,1722
5127,1711,1711
5128,1717,1717
5129,1705,1705
5130,1735,1735
5131,1725,1725
5132,1732,1732
5133,1727,1727
5134,1744,1744
5135,1747,1747
5136,1763,1763
5137,1841,1841
5138,1904,1904
5139,1991,1991
5140,2099,2099
5141,2145,2145
5142,2141,2141
5143,2128,2128
5144,2043,2043
5145,1989,1989
5146,1921,1921
5147,1875,1875
5148,1838,1838
5149,1817,1817
5150,1790,1790
5151,1762,1762
5152,1751,1751
5153,1759,1759
5154,1755,1755
5155,1750,1750
5156,1746,1746
5157,1757,1757
5158,1751,1751
5159,1757,1757
5160,1729,1729
5161,1723,1723
5162,1718,1718
5163,1709,1709
5164,1730,1730
5165,1714,1714
5166,1729,1729
5167,1742,1742
5168,1744,1744
5169,1744,1744
5170,1746,1746
5171,1760,1760
5172,1814,1814
5173,1890,1890
5174,1986,1986
5175,2111,2111
5176,2195,2195
5177,2218,2218
5178,2182,2182
5179,2151,2151
5180,2062,2062
5181,2000,2000
5182,1950,1950
5183,1909,1909
5184,1856,1856
5185,1822,1822
5186,1777,1777
5187,1753,1753
5188,1727,1727
5189,1751,1751
5190,1738,1738
5191,1714,1714
5192,1724,1724
5193,1712,1712
5194,1696,1696
5195,1680,1680
5196,1679,1679
5197,1674,1674
5198,1661,1661
5199,1649,1649
5200,1670,1670
5201,1680,1680
5202,1669,1669
5203,1653,1653
5204,1681,1681
5205,1681,1681
5206,1687,1687
5207,1694,1694
5208,1707,1707
5209,1775,1775
5210,1839,1839
5211,1954,1954
5212,2069,2069
5213,2157,2157
5214,2218,2218
5215,2224,2224
5216,2150,2150
5217,2082,2082
5218,2014,2014
5219,1951,1951
5220,1905,1905
5221,1871,1871
5222,1821,1821
5223,1779,1779
5224,1744,1744
5225,1731,1731
5226,1719,1719
5227,1720,1720
5228,1722,1722
5229,1706,1706
5230,1693,1693
5231,1700,1700
5232,1686,1686
5233,1652,1652
5234,1663,1663
5235,1658,1658
5236,1663,1663
5237,1639,1639
5238,1648,1648
5239,1662,1662
5240,1664,1664
5241,1667,1667
5242,1648,1648
5243,1663,1663
5244,1717,1717
5245,1764,1764
5246,1849,1849
5247,1979,1979
5248,2096,2096
5249,2159,2159
5250,2192,2192
5251,2160,2160
5252,2101,2101
5253,2045,2045
5254,1953,1953
5255,1892,1892
5256,1857,1857
5257,1792,1792
5258,1745,1745
5259,1735,1735
5260,1712,1712
5261,1712,1712
5262,1707,1707
5263,1712,1712
5264,1711,1711
5265,1701,1701
5266,1690,1690
5267,1673,1673
5268,1681,1681
5269,1650,1650
5270,1639,1639
5271,1632,1632
5272,1621,1621
5273,1622,1622
5274,1649,1649
5275,1643,1643
5276,1643,1643
5277,1645,1645
5278,1654,1654
5279,1729,1729
5280,1819,1819
5281,1950,1950
5282,2096,2096
5283,2189,2189
5284,2222,2222
5285,2224,2224
5286,2177,2177
5287,2071,2071
5288,2023,2023
5289,1938,1938
5290,1909,1909
5291,1819,1819
5292,1780,1780
5293,1754,1754
5294,1708,1708
5295,1655,1655
5296,1642,1642
5297,1654,1654
5298,1634,1634
5299,1643,1643
5300,1602,1602
5301,1610,1610
5302,1607,1607
5303,1588,1588
5304,1585,1585
5305,1566,1566
5306,1593,1593
5307,1573,1573
5308,1588,1588
5309,1574,1574
5310,1586,1586
5311,1581,1581
5312,1600,1600
5313,1623,1623
5314,1665,1665
5315,1712,1712
5316,1815,1815
5317,1999,1999
5318,2126,2126
5319,2235,2235
5320,2231,2231
5321,2211,2211
5322,2166,2166
5323,2064,2064
5324,2002,2002
5325,1923,1923
5326,1882,1882
5327,1829,1829
5328,1776,1776
5329,1743,1743
5330,1693,1693
5331,1671,1671
5332,1654,1654
5333,1641,1641
5334,1623,1623
5335,1618,1618
5336,1607,1607
5337,1589,1589
5338,1598,1598
5339,1561,1561
5340,1571,1571
5341,1561,1561
5342,1535,1535
5343,1553,1553
5344,1557,1557
5345,1577,1577
5346,1559,1559
5347,1527,1527
5348,1584,1584
5349,1600,1600
5350,1589,1589
5351,1602,1602
5352,1631,1631
5353,1686,1686
5354,1776,1776
5355,1903,1903
5356,2089,2089
5357,2194,2194
5358,2250,2250
5359,2221,2221
5360,2171,2171
5361,2085,2085
5362,2011,2011
5363,1938,1938
5364,1885,1885
5365,1825,1825
5366,1757,1757
5367,1710,1710
5368,1664,1664
5369,1636,1636
5370,1632,1632
5371,1602,1602
5372,1618,1618
5373,1617,1617
5374,1588,1588
5375,1591,1591
5376,1599,1599
5377,1575,1575
5378,1567,1567
5379,1535,1535
5380,1562,1562
5381,1556,1556
5382,1575,1575
5383,1535,1535
5384,1571,1571
5385,1586,1586
5386,1591,1591
5387,1616,1616
5388,1639,1639
5389,1639,1639
5390,1627,1627
5391,1646,1646
5392,1697,1697
5393,1833,1833
5394,1950,1950
5395,2089,2089
5396,2186,2186
5397,2202,2202
5398,2205,2205
5399,2134,2134
5400,2030,2030
5401,1954,1954
5402,1913,1913
5403,1839,1839
5404,1773,1773
5405,1735,1735
5406,1699,1699
5407,1681,1681
5408,1661,1661
5409,1679,1679
5410,1675,1675
5411,1655,1655
5412,1673,1673
5413,1645,1645
5414,1648,1648
5415,1656,1656
5416,1629,1629
5417,1620,1620
5418,1615,1615
5419,1615,1615
5420,1612,1612
5421,1621,1621
5422,1616,1616
5423,1619,1619
5424,1644,1644
5425,1627,1627
5426,1667,1667
5427,1661,1661
5428,1726,1726
5429,1843,1843
5430,1949,1949
5431,2084,2084
5432,2207,2207
5433,2207,2207
5434,2223,2223
5435,2133,2133
5436,2061,2061
5437,1999,1999
5438,1914,1914
5439,1855,1855
5440,1805,1805
5441,1755,1755
5442,1703,1703
5443,1701,1701
5444,1663,1663
5445,1659,1659
5446,1663,1663
5447,1661,1661
5448,1655,1655
5449,1633,1633
5450,1631,1631
5451,1623,1623
5452,1605,1605
5453,1606,1606
5454,1601,1601
5455,1616,1616
5456,1605,1605
5457,1611,1611
5458,1606,1606
5459,1643,1643
5460,1631,1631
5461,1642,1642
5462,1659,1659
5463,1680,1680
5464,1776,1776
5465,1886,1886
5466,2061,2061
5467,2170,2170
5468,2259,2259
5469,2241,2241
5470,2176,2176
5471,2116,2116
5472,2019,2019
5473,1926,1926
5474,1894,1894
5475,1827,1827
5476,1766,1766
5477,1730,1730
5478,1699,1699
5479,1682,1682
5480,1648,1648
5481,1659,1659
5482,1650,1650
5483,1647,1647
5484,1615,1615
5485,1629,1629
5486,1614,1614
5487,1623,1623
5488,1596,1596
5489,1600,1600
5490,1599,1599
5491,1577,1577
5492,1578,1578
5493,1601,1601
5494,1573,1573
5495,1616,1616
5496,1588,1588
5497,1604,1604
5498,1658,1658
5499,1688,1688
5500,1811,1811
5501,1958,1958
5502,2113,2113
5503,2207,2207
5504,2244,2244
5505,2208,2208
5506,2143,2143
5507,2095,2095
5508,2029,2029
5509,1942,1942
5510,1901,1901
5511,1866,1866
5512,1810,1810
5513,1776,1776
5514,1721,1721
5515,1696,1696
5516,1679,1679
5517,1664,1664
5518,1662,1662
5519,1648,1648
5520,1658,1658
5521,1647,1647
5522,1633,1633
5523,1600,1600
5524,1565,1565
5525,1581,1581
5526,1526,1526
5527,1573,1573
5528,1599,1599
5529,1584,1584
5530,1586,1586
5531,1598,1598
5532,1563,1563
5533,1616,1616
5534,1688,1688
5535,1785,1785
5536,1985,1985
5537,2127,2127
5538,2187,2187
5539,2177,2177
5540,2148,2148
5541,2101,2101
5542,1987,1987
5543,1936,1936
5544,1856,1856
5545,1791,1791
5546,1753,1753
5547,1692,1692
5548,1655,1655
5549,1616,1616
5550,1615,1615
5551,1603,1603
5552,1587,1587
5553,1584,1584
5554,1573,1573
5555,1523,1523
5556,1488,1488
5557,1494,1494
5558,1475,1475
5559,1488,1488
5560,1462,1462
5561,1462,1462
5562,1477,1477
5563,1490,1490
5564,1488,1488
5565,1502,1502
5566,1591,1591
5567,1723,1723
5568,1877,1877
5569,2005,2005
5570,2091,2091
5571,2098,2098
5572,2091,2091
5573,1987,1987
5574,1936,1936
5575,1860,1860
5576,1791,1791
5577,1759,1759
5578,1671,1671
5579,1633,1633
5580,1603,1603
5581,1574,1574
5582,1559,1559
5583,1575,1575
5584,1568,1568
5585,1562,1562
5586,1554,1554
5587,1535,1535
5588,1520,1520
5589,1506,1506
5590,1495,1495
5591,1487,1487
5592,1498,1498
5593,1483,1483
5594,1499,1499
5595,1500,1500
5596,1535,1535
5597,1658,1658
5598,1762,1762
5599,1919,1919
5600,2015,2015
5601,2090,2090
5602,2077,2077
5603,2026,2026
5604,1962,1962
5605,1888,1888
5606,1837,1837
5607,1802,1802
5608,1745,1745
5609,1680,1680
5610,1652,1652
5611,1615,1615
5612,1575,1575
5613,1574,1574
5614,1567,1567
5615,1563,1563
5616,1518,1518
5617,1504,1504
5618,1507,1507
5619,1487,1487
5620,1515,1515
5621,1488,1488
5622,1462,1462
5623,1488,1488
5624,1456,1456
5625,1453,1453
5626,1482,1482
5627,1473,1473
5628,1567,1567
5629,1670,1670
5630,1854,1854
5631,1957,1957
5632,2058,2058
5633,2080,2080
5634,2025,2025
5635,1984,1984
5636,1914,1914
5637,1890,1890
5638,1825,1825
5639,1799,1799
5640,1705,1705
5641,1680,1680
5642,1622,1622
5643,1612,1612
5644,1577,1577
5645,1535,1535
5646,1527,1527
5647,1555,1555
5648,1516,1516
5649,1526,1526
5650,1469,1469
5651,1479,1479
5652,1482,1482
5653,1472,1472
5654,1451,1451
5655,1453,1453
5656,1448,1448
5657,1431,1431
5658,1437,1437
5659,1486,1486
5660,1465,1465
5661,1488,1488
5662,1535,1535
5663,1639,1639
5664,1749,1749
5665,1872,1872
5666,1982,1982
5667,2021,2021
5668,2034,2034
5669,1987,1987
5670,1925,1925
5671,1895,1895
5672,1828,1828
5673,1763,1763
5674,1751,1751
5675,1712,1712
5676,1664,1664
5677,1621,1621
5678,1605,1605
5679,1579,1579
5680,1565,1565
5681,1555,1555
5682,1566,1566
5683,1563,1563
5684,1554,1554
5685,1535,1535
5686,1523,1523
5687,1514,1514
5688,1519,1519
5689,1519,1519
5690,1535,1535
5691,1531,1531
5692,1535,1535
5693,1565,1565
5694,1566,1566
5695,1571,1571
5696,1589,1589
5697,1595,1595
5698,1602,1602
5699,1617,1617
5700,1627,1627
5701,1653,1653
5702,1679,1679
5703,1712,1712
5704,1831,1831
5705,1929,1929
5706,2025,2025
5707,2090,2090
5708,2090,2090
5709,2029,2029
5710,2012,2012
5711,1952,1952
5712,1909,1909
5713,1904,1904
5714,1840,1840
5715,1823,1823
5716,1799,1799
5717,1743,1743
5718,1730,1730
5719,1723,1723
5720,1712,1712
5721,1726,1726
5722,1699,1699
5723,1689,1689
5724,1682,1682
5725,1674,1674
5726,1680,1680
5727,1667,1667
5728,1649,1649
5729,1675,1675
5730,1678,1678
5731,1643,1643
5732,1664,1664
5733,1671,1671
5734,1653,1653
5735,1675,1675
5736,1687,1687
5737,1678,1678
5738,1680,1680
5739,1671,1671
5740,1693,1693
5741,1759,1759
5742,1801,1801
5743,1886,1886
5744,1959,1959
5745,2004,2004
5746,2033,2033
5747,2003,2003
5748,1975,1975
5749,1923,1923
5750,1910,1910
5751,1859,1859
5752,1837,1837
5753,1821,1821
5754,1800,1800
5755,1759,1759
5756,1757,1757
5757,1754,1754
5758,1747,1747
5759,1744,1744
5760,1724,1724
5761,1744,1744
5762,1725,1725
5763,1720,1720
5764,1713,1713
5765,1706,1706
5766,1699,1699
5767,1699,1699
5768,1701,1701
5769,1706,1706
5770,1712,1712
5771,1706,1706
5772,1713,1713
5773,1717,1717
5774,1724,1724
5775,1758,1758
5776,1765,1765
5777,1759,1759
5778,1777,1777
5779,1867,1867
5780,1915,1915
5781,1988,1988
5782,2070,2070
5783,2098,2098
5784,2075,2075
5785,2039,2039
5786,1995,1995
5787,1968,1968
5788,1933,1933
5789,1914,1914
5790,1866,1866
5791,1822,1822
5792,1835,1835
5793,1798,1798
5794,1792,1792
5795,1762,1762
5796,1781,1781
5797,1779,1779
5798,1767,1767
5799,1733,1733
5800,1766,1766
5801,1726,1726
5802,1725,1725
5803,1706,1706
5804,1725,1725
5805,1711,1711
5806,1724,1724
5807,1712,1712
5808,1711,1711
5809,1726,1726
5810,1713,1713
5811,1727,1727
5812,1750,1750
5813,1728,1728
5814,1730,1730
5815,1744,1744
5816,1735,1735
5817,1760,1760
5818,1797,1797
5819,1872,1872
5820,1945,1945
5821,2047,2047
5822,2098,2098
5823,2085,2085
5824,2064,2064
5825,2019,2019
5826,1975,1975
5827,1933,1933
5828,1903,1903
5829,1853,1853
5830,1827,1827
5831,1806,1806
5832,1775,1775
5833,1766,1766
5834,1773,1773
5835,1755,1755
5836,1745,1745
5837,1744,1744
5838,1734,1734
5839,1744,1744
5840,1744,1744
5841,1741,1741
5842,1745,1745
5843,1725,1725
5844,1723,1723
5845,1725,1725
5846,1711,1711
5847,1726,1726
5848,1717,1717
5849,1725,1725
5850,1713,1713
5851,1714,1714
5852,1734,1734
5853,1743,1743
5854,1735,1735
5855,1769,1769
5856,1786,1786
5857,1846,1846
5858,1932,1932
5859,1996,1996
5860,2061,2061
5861,2038,2038
5862,2023,2023
5863,1975,1975
5864,1920,1920
5865,1885,1885
5866,1872,1872
5867,1825,1825
5868,1795,1795
5869,1783,1783
5870,1769,1769
5871,1764,1764
5872,1761,1761
5873,1760,1760
5874,1766,1766
5875,1757,1757
5876,1750,1750
5877,1749,1749
5878,1735,1735
5879,1744,1744
5880,1735,1735
5881,1742,1742
5882,1725,1725
5883,1730,1730
5884,1744,1744
5885,1739,1739
5886,1734,1734
5887,1754,1754
5888,1746,1746
5889,1744,1744
5890,1744,1744
5891,1760,1760
5892,1821,1821
5893,1866,1866
5894,1936,1936
5895,2015,2015
5896,2053,2053
5897,2096,2096
5898,2096,2096
5899,2025,2025
5900,1982,1982
5901,1935,1935
5902,1893,1893
5903,1878,1878
5904,1825,1825
5905,1795,1795
5906,1802,1802
5907,1775,1775
5908,1760,1760
5909,1769,1769
5910,1764,1764
5911,1744,1744
5912,1785,1785
5913,1744,1744
5914,1749,1749
5915,1739,1739
5916,1757,1757
5917,1742,1742
5918,1750,1750
5919,1744,1744
5920,1755,1755
5921,1745,1745
5922,1754,1754
5923,1750,1750
5924,1746,1746
5925,1753,1753
5926,1763,1763
5927,1770,1770
5928,1806,1806
5929,1887,1887
5930,1971,1971
5931,2055,2055
5932,2096,2096
5933,2115,2115
5934,2114,2114
5935,2100,2100
5936,2032,2032
5937,1994,1994
5938,1965,1965
5939,1903,1903
5940,1871,1871
5941,1866,1866
5942,1812,1812
5943,1791,1791
5944,1776,1776
5945,1769,1769
5946,1757,1757
5947,1751,1751
5948,1733,1733
5949,1755,1755
5950,1741,1741
5951,1735,1735
5952,1713,1713
5953,1742,1742
5954,1713,1713
5955,1715,1715
5956,1711,1711
5957,1713,1713
5958,1715,1715
5959,1728,1728
5960,1724,1724
5961,1739,1739
5962,1728,1728
5963,1737,1737
5964,1783,1783
5965,1825,1825
5966,1939,1939
5967,2003,2003
5968,2092,2092
5969,2128,2128
5970,2160,2160
5971,2119,2119
5972,2087,2087
5973,2023,2023
5974,1971,1971
5975,1909,1909
5976,1883,1883
5977,1861,1861
5978,1820,1820
5979,1817,1817
5980,1786,1786
5981,1789,1789
5982,1765,1765
5983,1749,1749
5984,1741,1741
5985,1741,1741
5986,1712,1712
5987,1728,1728
5988,1712,1712
5989,1710,1710
5990,1697,1697
5991,1697,1697
5992,1712,1712
5993,1694,1694
5994,1709,1709
5995,1727,1727
5996,1699,1699
5997,1712,1712
5998,1733,1733
5999,1718,1718
6000,1776,1776
6001,1840,1840
6002,1936,1936
6003,2030,2030
6004,2099,2099
6005,2143,2143
6006,2128,2128
6007,2098,2098
6008,2035,2035
6009,1987,1987
6010,1924,1924
6011,1895,1895
6012,1842,1842
6013,1817,1817
6014,1781,1781
6015,1775,1775
6016,1770,1770
6017,1739,1739
6018,1763,1763
6019,1755,1755
6020,1755,1755
6021,1744,1744
6022,1751,1751
6023,1714,1714
6024,1711,1711
6025,1709,1709
6026,1696,1696
6027,1694,1694
6028,1693,1693
6029,1693,1693
6030,1696,1696
6031,1682,1682
6032,1709,1709
6033,1731,1731
6034,1770,1770
6035,1827,1827
6036,1927,1927
6037,2057,2057
6038,2102,2102
6039,2137,2137
6040,2111,2111
6041,2080,2080
6042,2018,2018
6043,1968,1968
6044,1942,1942
6045,1855,1855
6046,1840,1840
6047,1819,1819
6048,1791,1791
6049,1770,1770
6050,1764,1764
6051,1757,1757
6052,1778,1778
6053,1744,1744
6054,1730,1730
6055,1740,1740
6056,1712,1712
6057,1686,1686
6058,1685,1685
6059,1680,1680
6060,1665,1665
6061,1679,1679
6062,1671,1671
6063,1696,1696
6064,1703,1703
6065,1699,1699
6066,1715,1715
6067,1776,1776
6068,1862,1862
6069,1969,1969
6070,2102,2102
6071,2187,2187
6072,2187,2187
6073,2147,2147
6074,2085,2085
6075,2019,2019
6076,1971,1971
6077,1919,1919
6078,1872,1872
6079,1847,1847
6080,1795,1795
6081,1775,1775
6082,1744,1744
6083,1722,1722
6084,1718,1718
6085,1702,1702
6086,1714,1714
6087,1695,1695
6088,1683,1683
6089,1684,1684
6090,1655,1655
6091,1645,1645
6092,1647,1647
6093,1629,1629
6094,1604,1604
6095,1616,1616
6096,1621,1621
6097,1637,1637
6098,1633,1633
6099,1618,1618
6100,1692,1692
6101,1773,1773
6102,1919,1919
6103,2027,2027
6104,2149,2149
6105,2175,2175
6106,2176,2176
6107,2128,2128
6108,2057,2057
6109,1995,1995
6110,1953,1953
6111,1915,1915
6112,1861,1861
6113,1810,1810
6114,1771,1771
6115,1723,1723
6116,1675,1675
6117,1664,1664
6118,1663,1663
6119,1653,1653
6120,1611,1611
6121,1645,1645
6122,1611,1611
6123,1614,1614
6124,1584,1584
6125,1563,1563
6126,1574,1574
6127,1598,1598
6128,1567,1567
6129,1577,1577
6130,1557,1557
6131,1559,1559
6132,1575,1575
6133,1565,1565
6134,1600,1600
6135,1648,1648
6136,1737,1737
6137,1881,1881
6138,2036,2036
6139,2142,2142
6140,2181,2181
6141,2167,2167
6142,2113,2113
6143,2033,2033
6144,1979,1979
6145,1939,1939
6146,1872,1872
6147,1819,1819
6148,1779,1779
6149,1744,1744
6150,1679,1679
6151,1667,1667
6152,1634,1634
6153,1625,1625
6154,1613,1613
6155,1616,1616
6156,1599,1599
6157,1591,1591
6158,1559,1559
6159,1559,1559
6160,1574,1574
6161,1535,1535
6162,1535,1535
6163,1563,1563
6164,1535,1535
6165,1562,1562
6166,1558,1558
6167,1562,1562
6168,1565,1565
6169,1589,1589
6170,1631,1631
6171,1695,1695
6172,1822,1822
6173,1990,1990
6174,2102,2102
6175,2128,2128
6176,2113,2113
6177,2064,2064
6178,2034,2034
6179,1952,1952
6180,1904,1904
6181,1858,1858
6182,1822,1822
6183,1750,1750
6184,1723,1723
6185,1690,1690
6186,1647,1647
6187,1654,1654
6188,1637,1637
6189,1629,1629
6190,1607,1607
6191,1602,1602
6192,1597,1597
6193,1535,1535
6194,1568,1568
6195,1585,1585
6196,1559,1559
6197,1571,1571
6198,1535,1535
6199,1535,1535
6200,1561,1561
6201,1556,1556
6202,1594,1594
6203,1582,1582
6204,1601,1601
6205,1639,1639
6206,1729,1729
6207,1872,1872
6208,1995,1995
6209,2078,2078
6210,2109,2109
6211,2095,2095
6212,2032,2032
6213,1979,1979
6214,1909,1909
6215,1863,1863
6216,1825,1825
6217,1769,1769
6218,1744,1744
6219,1708,1708
6220,1678,1678
6221,1657,1657
6222,1657,1657
6223,1651,1651
6224,1630,1630
6225,1638,1638
6226,1615,1615
6227,1611,1611
6228,1598,1598
6229,1601,1601
6230,1585,1585
6231,1582,1582
6232,1568,1568
6233,1575,1575
6234,1578,1578
6235,1583,1583
6236,1584,1584
6237,1597,1597
6238,1603,1603
6239,1655,1655
6240,1757,1757
6241,1923,1923
6242,2020,2020
6243,2110,2110
6244,2110,2110
6245,2096,2096
6246,2022,2022
6247,1962,1962
6248,1924,1924
6249,1879,1879
6250,1824,1824
6251,1791,1791
6252,1729,1729
6253,1674,1674
6254,1655,1655
6255,1676,1676
6256,1622,1622
6257,1611,1611
6258,1616,1616
6259,1626,1626
6260,1606,1606
6261,1588,1588
6262,1535,1535
6263,1575,1575
6264,1571,1571
6265,1535,1535
6266,1520,1520
6267,1563,1563
6268,1530,1530
6269,1559,1559
6270,1559,1559
6271,1576,1576
6272,1598,1598
6273,1721,1721
6274,1815,1815
6275,1941,1941
6276,2023,2023
6277,2073,2073
6278,2068,2068
6279,2047,2047
6280,2003,2003
6281,1927,1927
6282,1891,1891
6283,1875,1875
6284,1802,1802
6285,1776,1776
6286,1725,1725
6287,1677,1677
6288,1658,1658
6289,1616,1616
6290,1641,1641
6291,1591,1591
6292,1616,1616
6293,1585,1585
6294,1597,1597
6295,1597,1597
6296,1584,1584
6297,1561,1561
6298,1566,1566
6299,1557,1557
6300,1527,1527
6301,1568,1568
6302,1535,1535
6303,1535,1535
6304,1568,1568
6305,1566,1566
6306,1590,1590
6307,1643,1643
6308,1765,1765
6309,1867,1867
6310,1951,1951
6311,2021,2021
6312,2032,2032
6313,2007,2007
6314,1938,1938
6315,1895,1895
6316,1855,1855
6317,1819,1819
6318,1778,1778
6319,1758,1758
6320,1712,1712
6321,1667,1667
6322,1649,1649
6323,1655,1655
6324,1638,1638
6325,1617,1617
6326,1605,1605
6327,1606,1606
6328,1599,1599
6329,1603,1603
6330,1593,1593
6331,1557,1557
6332,1584,1584
6333,1575,1575
6334,1575,1575
6335,1568,1568
6336,1583,1583
6337,1584,1584
6338,1569,1569
6339,1584,1584
6340,1622,1622
6341,1616,1616
6342,1682,1682
6343,1773,1773
6344,1831,1831
6345,1926,1926
6346,1952,1952
6347,1983,1983
6348,1955,1955
6349,1899,1899
6350,1861,1861
6351,1810,1810
6352,1802,1802
6353,1763,1763
6354,1744,1744
6355,1744,1744
6356,1706,1706
6357,1690,1690
6358,1690,1690
6359,1697,1697
6360,1697,1697
6361,1683,1683
6362,1678,1678
6363,1678,1678
6364,1677,1677
6365,1680,1680
6366,1666,1666
6367,1685,1685
6368,1671,1671
6369,1678,1678
6370,1681,1681
6371,1674,1674
6372,1685,1685
6373,1703,1703
6374,1681,1681
6375,1742,1742
6376,1799,1799
6377,1867,1867
6378,1934,1934
6379,1977,1977
6380,1987,1987
6381,1948,1948
6382,1935,1935
6383,1892,1892
6384,1855,1855
6385,1826,1826
6386,1808,1808
6387,1773,1773
6388,1723,1723
6389,1733,1733
6390,1743,1743
6391,1713,1713
6392,1730,1730
6393,1710,1710
6394,1725,1725
6395,1703,1703
6396,1700,1700
6397,1694,1694
6398,1691,1691
6399,1686,1686
6400,1712,1712
6401,1686,1686
6402,1695,1695
6403,1696,1696
6404,1714,1714
6405,1699,1699
6406,1695,1695
6407,1706,1706
6408,1774,1774
6409,1826,1826
6410,1919,1919
6411,1952,1952
6412,1995,1995
6413,1991,1991
6414,1987,1987
6415,1953,1953
6416,1907,1907
6417,1887,1887
6418,1862,1862
6419,1847,1847
6420,1827,1827
6421,1787,1787
6422,1762,1762
6423,1744,1744
6424,1747,1747
6425,1733,1733
6426,1727,1727
6427,1706,1706
6428,1734,1734
6429,1711,1711
6430,1699,1699
6431,1713,1713
6432,1680,1680
6433,1715,1715
6434,1698,1698
6435,1701,1701
6436,1707,1707
6437,1701,1701
6438,1707,1707
6439,1702,1702
6440,1701,1701
6441,1742,1742
6442,1767,1767
6443,1832,1832
6444,1914,1914
6445,1948,1948
6446,1974,1974
6447,1968,1968
6448,1953,1953
6449,1925,1925
6450,1894,1894
6451,1870,1870
6452,1834,1834
6453,1803,1803
6454,1791,1791
6455,1765,1765
6456,1770,1770
6457,1735,1735
6458,1728,1728
6459,1717,1717
6460,1743,1743
6461,1740,1740
6462,1715,1715
6463,1709,1709
6464,1709,1709
6465,1713,1713
6466,1706,1706
6467,1703,1703
6468,1700,1700
6469,1712,1712
6470,1741,1741
6471,1711,1711
6472,1725,1725
6473,1737,1737
6474,1723,1723
6475,1763,1763
6476,1852,1852
6477,1891,1891
6478,1931,1931
6479,1955,1955
6480,1955,1955
6481,1930,1930
6482,1926,1926
6483,1863,1863
6484,1845,1845
6485,1835,1835
6486,1805,1805
6487,1786,1786
6488,1777,1777
6489,1782,1782
6490,1767,1767
6491,1769,1769
6492,1754,1754
6493,1757,1757
6494,1758,1758
6495,1757,1757
6496,1745,1745
6497,1783,1783
6498,1749,1749
6499,1733,1733
6500,1738,1738
6501,1749,1749
6502,1727,1727
6503,1751,1751
6504,1746,1746
6505,1751,1751
6506,1757,1757
6507,1827,1827
6508,1872,1872
6509,1923,1923
6510,1978,1978
6511,1979,1979
6512,1998,1998
6513,1941,1941
6514,1915,1915
6515,1898,1898
6516,1871,1871
6517,1847,1847
6518,1809,1809
6519,1791,1791
6520,1776,1776
6521,1794,1794
6522,1777,1777
6523,1786,1786
6524,1791,1791
6525,1776,1776
6526,1771,1771
6527,1771,1771
6528,1773,1773
6529,1782,1782
6530,1771,1771
6531,1761,1761
6532,1767,1767
6533,1775,1775
6534,1765,1765
6535,1761,1761
6536,1765,1765
6537,1776,1776
6538,1808,1808
6539,1856,1856
6540,1949,1949
6541,1990,1990
6542,2057,2057
6543,2044,2044
6544,2005,2005
6545,1994,1994
6546,1964,1964
6547,1937,1937
6548,1890,1890
6549,1873,1873
6550,1868,1868
6551,1813,1813
6552,1801,1801
6553,1782,1782
6554,1793,1793
6555,1782,1782
6556,1789,1789
6557,1779,1779
6558,1763,1763
6559,1793,1793
6560,1767,1767
6561,1759,1759
6562,1767,1767
6563,1778,1778
6564,1760,1760
6565,1744,1744
6566,1744,1744
6567,1751,1751
6568,1757,1757
6569,1759,1759
6570,1778,1778
6571,1840,1840
6572,1921,1921
6573,1975,1975
6574,2057,2057
6575,2036,2036
6576,2034,2034
6577,2021,2021
6578,1988,1988
6579,1931,1931
6580,1904,1904
6581,1891,1891
6582,1871,1871
6583,1812,1812
6584,1810,1810
6585,1784,1784
6586,1776,1776
6587,1773,1773
6588,1758,1758
6589,1766,1766
6590,1775,1775
6591,1744,1744
6592,1754,1754
6593,1745,1745
6594,1733,1733
6595,1759,1759
6596,1757,1757
6597,1745,1745
6598,1726,1726
6599,1738,1738
6600,1743,1743
6601,1755,1755
6602,1797,1797
6603,1849,1849
6604,1929,1929
6605,1984,1984
6606,2029,2029
6607,2060,2060
6608,2032,2032
6609,1995,1995
6610,1946,1946
6611,1923,1923
6612,1904,1904
6613,1855,1855
6614,1838,1838
6615,1811,1811
6616,1792,1792
6617,1777,1777
6618,1762,1762
6619,1763,1763
6620,1738,1738
6621,1754,1754
6622,1754,1754
6623,1743,1743
6624,1762,1762
6625,1736,1736
6626,1728,1728
6627,1742,1742
6628,1709,1709
6629,1715,1715
6630,1712,1712
6631,1730,1730
6632,1696,1696
6633,1755,1755
6634,1826,1826
6635,1921,1921
6636,1983,1983
6637,2038,2038
6638,2035,2035
6639,2055,2055
6640,1966,1966
6641,1955,1955
6642,1922,1922
6643,1889,1889
6644,1857,1857
6645,1824,1824
6646,1808,1808
6647,1773,1773
6648,1782,1782
6649,1765,1765
6650,1770,1770
6651,1758,1758
6652,1776,1776
6653,1753,1753
6654,1730,1730
6655,1725,1725
6656,1717,1717
6657,1731,1731
6658,1683,1683
6659,1730,1730
6660,1725,1725
6661,1698,1698
6662,1694,1694
6663,1723,1723
6664,1794,1794
6665,1891,1891
6666,1974,1974
6667,2064,2064
6668,2078,2078
6669,2075,2075
6670,2044,2044
6671,2032,2032
6672,1992,1992
6673,1942,1942
6674,1904,1904
6675,1878,1878
6676,1840,1840
6677,1790,1790
6678,1791,1791
6679,1743,1743
6680,1733,1733
6681,1725,1725
6682,1718,1718
6683,1715,1715
6684,1694,1694
6685,1697,1697
6686,1690,1690
6687,1675,1675
6688,1658,1658
6689,1655,1655
6690,1658,1658
6691,1679,1679
6692,1648,1648
6693,1667,1667
6694,1680,1680
6695,1742,1742
6696,1837,1837
6697,1942,1942
6698,2035,2035
6699,2090,2090
6700,2112,2112
6701,2096,2096
6702,2067,2067
6703,1991,1991
6704,1965,1965
6705,1912,1912
6706,1840,1840
6707,1797,1797
6708,1778,1778
6709,1731,1731
6710,1675,1675
6711,1680,1680
6712,1673,1673
6713,1668,1668
6714,1684,1684
6715,1651,1651
6716,1633,1633
6717,1635,1635
6718,1623,1623
6719,1631,1631
6720,1585,1585
6721,1596,1596
6722,1593,1593
6723,1615,1615
6724,1594,1594
6725,1584,1584
6726,1617,1617
6727,1591,1591
6728,1664,1664
6729,1772,1772
6730,1869,1869
6731,1957,1957
6732,2055,2055
6733,2080,2080
6734,2081,2081
6735,2039,2039
6736,1968,1968
6737,1919,1919
6738,1886,1886
6739,1877,1877
6740,1801,1801
6741,1773,1773
6742,1741,1741
6743,1702,1702
6744,1677,1677
6745,1650,1650
6746,1648,1648
6747,1653,1653
6748,1620,1620
6749,1632,1632
6750,1601,1601
6751,1613,1613
6752,1604,1604
6753,1596,1596
6754,1579,1579
6755,1578,1578
6756,1565,1565
6757,1584,1584
6758,1584,1584
6759,1578,1578
6760,1600,1600
6761,1600,1600
6762,1616,1616
6763,1666,1666
6764,1740,1740
6765,1870,1870
6766,1965,1965
6767,2026,2026
6768,2021,2021
6769,1994,1994
6770,1967,1967
6771,1925,1925
6772,1867,1867
6773,1844,1844
6774,1798,1798
6775,1776,1776
6776,1705,1705
6777,1684,1684
6778,1684,1684
6779,1662,1662
6780,1666,1666
6781,1658,1658
6782,1653,1653
6783,1663,1663
6784,1635,1635
6785,1651,1651
6786,1648,1648
6787,1633,1633
6788,1621,1621
6789,1623,1623
6790,1645,1645
6791,1616,1616
6792,1639,1639
6793,1642,1642
6794,1625,1625
6795,1632,1632
6796,1676,1676
6797,1696,1696
6798,1791,1791
6799,1904,1904
6800,1974,1974
6801,2026,2026
6802,2029,2029
6803,1995,1995
6804,1951,1951
6805,1920,1920
6806,1869,1869
6807,1831,1831
6808,1807,1807
6809,1744,1744
6810,1730,1730
6811,1693,1693
6812,1691,1691
6813,1691,1691
6814,1675,1675
6815,1693,1693
6816,1659,1659
6817,1683,1683
6818,1665,1665
6819,1684,1684
6820,1648,1648
6821,1630,1630
6822,1617,1617
6823,1618,1618
6824,1631,1631
6825,1628,1628
6826,1629,1629
6827,1630,1630
6828,1666,1666
6829,1665,1665
6830,1746,1746
6831,1815,1815
6832,1899,1899
6833,1984,1984
6834,2030,2030
6835,2016,2016
6836,2000,2000
6837,1970,1970
6838,1920,1920
6839,1861,1861
6840,1836,1836
6841,1813,1813
6842,1779,1779
6843,1747,1747
6844,1707,1707
6845,1694,1694
6846,1691,1691
6847,1690,1690
6848,1681,1681
6849,1684,1684
6850,1674,1674
6851,1654,1654
6852,1661,1661
6853,1634,1634
6854,1659,1659
6855,1642,1642
6856,1643,1643
6857,1639,1639
6858,1638,1638
6859,1640,1640
6860,1653,1653
6861,1644,1644
6862,1653,1653
6863,1719,1719
6864,1778,1778
6865,1874,1874
6866,1993,1993
6867,2061,2061
6868,2095,2095
6869,2021,2021
6870,1986,1986
6871,1954,1954
6872,1904,1904
6873,1873,1873
6874,1821,1821
6875,1782,1782
6876,1769,1769
6877,1728,1728
6878,1699,1699
6879,1685,1685
6880,1680,1680
6881,1682,1682
6882,1655,1655
6883,1658,1658
6884,1632,1632
6885,1639,1639
6886,1635,1635
6887,1641,1641
6888,1614,1614
6889,1627,1627
6890,1633,1633
6891,1622,1622
6892,1636,1636
6893,1632,1632
6894,1615,1615
6895,1648,1648
6896,1648,1648
6897,1699,1699
6898,1770,1770
6899,1831,1831
6900,1955,1955
6901,2005,2005
6902,2037,2037
6903,2025,2025
6904,1990,1990
6905,1939,1939
6906,1900,1900
6907,1839,1839
6908,1810,1810
6909,1773,1773
6910,1763,1763
6911,1721,1721
6912,1706,1706
6913,1673,1673
6914,1680,1680
6915,1686,1686
6916,1680,1680
6917,1658,1658
6918,1655,1655
6919,1670,1670
6920,1656,1656
6921,1648,1648
6922,1626,1626
6923,1639,1639
6924,1655,1655
6925,1647,1647
6926,1653,1653
6927,1639,1639
6928,1654,1654
6929,1664,1664
6930,1723,1723
6931,1808,1808
6932,1888,1888
6933,1970,1970
6934,2011,2011
6935,2008,2008
6936,1979,1979
6937,1952,1952
6938,1903,1903
6939,1876,1876
6940,1808,1808
6941,1786,1786
6942,1749,1749
6943,1735,1735
6944,1729,1729
6945,1703,1703
6946,1712,1712
6947,1699,1699
6948,1700,1700
6949,1703,1703
6950,1693,1693
6951,1694,1694
6952,1695,1695
6953,1690,1690
6954,1658,1658
6955,1664,1664
6956,1661,1661
6957,1676,1676
6958,1674,1674
6959,1667,1667
6960,1671,1671
6961,1699,1699
6962,1779,1779
6963,1884,1884
6964,1977,1977
6965,2025,2025
6966,2093,2093
6967,2091,2091
6968,2007,2007
6969,1957,1957
6970,1929,1929
6971,1882,1882
6972,1835,1835
6973,1795,1795
6974,1763,1763
6975,1743,1743
6976,1709,1709
6977,1711,1711
6978,1701,1701
6979,1674,1674
6980,1648,1648
6981,1670,1670
6982,1650,1650
6983,1648,1648
6984,1630,1630
6985,1621,1621
6986,1638,1638
6987,1642,1642
6988,1630,1630
6989,1611,1611
6990,1628,1628
6991,1628,1628
6992,1662,1662
6993,1724,1724
6994,1808,1808
6995,1923,1923
6996,2000,2000
6997,2034,2034
6998,2062,2062
6999,2018,2018
7000,1973,1973
7001,1910,1910
7002,1901,1901
7003,1838,1838
7004,1808,1808
7005,1805,1805
7006,1760,1760
7007,1706,1706
7008,1679,1679
7009,1693,1693
7010,1679,1679
7011,1673,1673
7012,1651,1651
7013,1660,1660
7014,1647,1647
7015,1628,1628
7016,1637,1637
7017,1634,1634
7018,1638,1638
7019,1603,1603
7020,1597,1597
7021,1626,1626
7022,1633,1633
7023,1618,1618
7024,1695,1695
7025,1770,1770
7026,1882,1882
7027,1952,1952
7028,1991,1991
7029,2037,2037
7030,2000,2000
7031,1963,1963
7032,1909,1909
7033,1847,1847
7034,1867,1867
7035,1837,1837
7036,1825,1825
7037,1779,1779
7038,1744,1744
7039,1744,1744
7040,1745,1745
7041,1745,1745
7042,1717,1717
7043,1707,1707
7044,1712,1712
7045,1686,1686
7046,1655,1655
7047,1642,1642
7048,1632,1632
7049,1616,1616
7050,1602,1602
7051,1616,1616
7052,1581,1581
7053,1594,1594
7054,1643,1643
7055,1737,1737
7056,1814,1814
7057,1905,1905
7058,1962,1962
7059,1975,1975
7060,1952,1952
7061,1933,1933
7062,1863,1863
7063,1804,1804
7064,1748,1748
7065,1715,1715
7066,1647,1647
7067,1617,1617
7068,1606,1606
7069,1597,1597
7070,1587,1587
7071,1584,1584
7072,1615,1615
7073,1601,1601
7074,1573,1573
7075,1571,1571
7076,1575,1575
7077,1555,1555
7078,1570,1570
7079,1535,1535
7080,1526,1526
7081,1531,1531
7082,1524,1524
7083,1535,1535
7084,1603,1603
7085,1709,1709
7086,1830,1830
7087,1904,1904
7088,1943,1943
7089,1931,1931
7090,1929,1929
7091,1878,1878
7092,1819,1819
7093,1778,1778
7094,1742,1742
7095,1707,1707
7096,1666,1666
7097,1637,1637
7098,1615,1615
7099,1598,1598
7100,1589,1589
7101,1566,1566
7102,1535,1535
7103,1579,1579
7104,1535,1535
7105,1525,1525
7106,1504,1504
7107,1522,1522
7108,1502,1502
7109,1488,1488
7110,1507,1507
7111,1499,1499
7112,1513,1513
7113,1568,1568
7114,1696,1696
7115,1779,1779
7116,1859,1859
7117,1893,1893
7118,1857,1857
7119,1856,1856
7120,1803,1803
7121,1779,1779
7122,1716,1716
7123,1701,1701
7124,1654,1654
7125,1635,1635
7126,1590,1590
7127,1568,1568
7128,1559,1559
7129,1525,1525
7130,1525,1525
7131,1520,1520
7132,1507,1507
7133,1507,1507
7134,1522,1522
7135,1522,1522
7136,1495,1495
7137,1507,1507
7138,1503,1503
7139,1518,1518
7140,1520,1520
7141,1583,1583
7142,1655,1655
7143,1731,1731
7144,1823,1823
7145,1872,1872
7146,1871,1871
7147,1847,1847
7148,1808,1808
7149,1784,1784
7150,1742,1742
7151,1709,1709
7152,1675,1675
7153,1629,1629
7154,1591,1591
7155,1582,1582
7156,1569,1569
7157,1535,1535
7158,1535,1535
7159,1535,1535
7160,1535,1535
7161,1557,1557
7162,1535,1535
7163,1530,1530
7164,1520,1520
7165,1533,1533
7166,1535,1535
7167,1535,1535
7168,1523,1523
7169,1563,1563
7170,1617,1617
7171,1693,1693
7172,1776,1776
7173,1825,1825
7174,1874,1874
7175,1874,1874
7176,1852,1852
7177,1802,1802
7178,1773,1773
7179,1717,1717
7180,1702,1702
7181,1655,1655
7182,1634,1634
7183,1637,1637
7184,1613,1613
7185,1609,1609
7186,1611,1611
7187,1610,1610
7188,1608,1608
7189,1582,1582
7190,1594,1594
7191,1581,1581
7192,1581,1581
7193,1568,1568
7194,1570,1570
7195,1583,1583
7196,1568,1568
7197,1557,1557
7198,1577,1577
7199,1600,1600
7200,1575,1575
7201,1628,1628
7202,1678,1678
7203,1759,1759
7204,1834,1834
7205,1879,1879
7206,1878,1878
7207,1871,1871
7208,1857,1857
7209,1825,1825
7210,1779,1779
7211,1754,1754
7212,1737,1737
7213,1702,1702
7214,1689,1689
7215,1675,1675
7216,1665,1665
7217,1643,1643
7218,1639,1639
7219,1653,1653
7220,1648,1648
7221,1630,1630
7222,1631,1631
7223,1629,1629
7224,1617,1617
7225,1627,1627
7226,1611,1611
7227,1615,1615
7228,1631,1631
7229,1614,1614
7230,1615,1615
7231,1611,1611
7232,1626,1626
7233,1679,1679
7234,1744,1744
7235,1808,1808
7236,1837,1837
7237,1875,1875
7238,1857,1857
7239,1855,1855
7240,1810,1810
7241,1785,1785
7242,1769,1769
7243,1739,1739
7244,1683,1683
7245,1669,1669
7246,1680,1680
7247,1662,1662
7248,1661,1661
7249,1647,1647
7250,1621,1621
7251,1648,1648
7252,1629,1629
7253,1661,1661
7254,1638,1638
7255,1630,1630
7256,1649,1649
7257,1631,1631
7258,1643,1643
7259,1648,1648
7260,1639,1639
7261,1634,1634
7262,1634,1634
7263,1655,1655
7264,1698,1698
7265,1767,1767
7266,1831,1831
7267,1871,1871
7268,1888,1888
7269,1872,1872
7270,1841,1841
7271,1819,1819
7272,1765,1765
7273,1775,1775
7274,1744,1744
7275,1705,1705
7276,1694,1694
7277,1658,1658
7278,1668,1668
7279,1669,1669
7280,1684,1684
7281,1676,1676
7282,1655,1655
7283,1661,1661
7284,1662,1662
7285,1642,1642
7286,1664,1664
7287,1650,1650
7288,1634,1634
7289,1630,1630
7290,1628,1628
7291,1627,1627
7292,1645,1645
7293,1659,1659
7294,1695,1695
7295,1727,1727
7296,1792,1792
7297,1831,1831
7298,1850,1850
7299,1859,1859
7300,1856,1856
7301,1808,1808
7302,1799,1799
7303,1767,1767
7304,1739,1739
7305,1739,1739
7306,1728,1728
7307,1701,1701
7308,1681,1681
7309,1680,1680
7310,1680,1680
7311,1662,1662
7312,1663,1663
7313,1657,1657
7314,1670,1670
7315,1655,1655
7316,1643,1643
7317,1622,1622
7318,1659,1659
7319,1645,1645
7320,1665,1665
7321,1650,1650
7322,1654,1654
7323,1623,1623
7324,1648,1648
7325,1637,1637
7326,1691,1691
7327,1732,1732
7328,1781,1781
7329,1819,1819
7330,1862,1862
7331,1856,1856
7332,1842,1842
7333,1824,1824
7334,1793,1793
7335,1775,1775
7336,1744,1744
7337,1739,1739
7338,1725,1725
7339,1711,1711
7340,1699,1699
7341,1680,1680
7342,1687,1687
7343,1680,1680
7344,1674,1674
7345,1667,1667
7346,1648,1648
7347,1671,1671
7348,1671,1671
7349,1675,1675
7350,1659,1659
7351,1647,1647
7352,1648,1648
7353,1669,1669
7354,1654,1654
7355,1665,1665
7356,1653,1653
7357,1649,1649
7358,1654,1654
7359,1680,1680
7360,1692,1692
7361,1687,1687
7362,1714,1714
7363,1739,1739
7364,1761,1761
7365,1845,1845
7366,1872,1872
7367,1906,1906
7368,1878,1878
7369,1893,1893
7370,1874,1874
7371,1862,1862
7372,1843,1843
7373,1824,1824
7374,1786,1786
7375,1776,1776
7376,1765,1765
7377,1766,1766
7378,1750,1750
7379,1715,1715
7380,1709,1709
7381,1719,1719
7382,1708,1708
7383,1683,1683
7384,1694,1694
7385,1689,1689
7386,1697,1697
7387,1677,1677
7388,1680,1680
7389,1697,1697
7390,1667,1667
7391,1682,1682
7392,1686,1686
7393,1680,1680
7394,1684,1684
7395,1680,1680
7396,1695,1695
7397,1679,1679
7398,1673,1673
7399,1728,1728
7400,1750,1750
7401,1799,1799
7402,1846,1846
7403,1874,1874
7404,1899,1899
7405,1862,1862
7406,1847,1847
7407,1818,1818
7408,1793,1793
7409,1775,1775
7410,1770,1770
7411,1741,1741
7412,1728,1728
7413,1729,1729
7414,1728,1728
7415,1705,1705
7416,1697,1697
7417,1697,1697
7418,1700,1700
7419,1710,1710
7420,1695,1695
7421,1680,1680
7422,1701,1701
7423,1675,1675
7424,1681,1681
7425,1665,1665
7426,1663,1663
7427,1678,1678
7428,1670,1670
7429,1693,1693
7430,1680,1680
7431,1703,1703
7432,1703,1703
7433,1696,1696
7434,1715,1715
7435,1731,1731
7436,1769,1769
7437,1815,1815
7438,1842,1842
7439,1874,1874
7440,1872,1872
7441,1863,1863
7442,1851,1851
7443,1824,1824
7444,1840,1840
7445,1794,1794
7446,1785,1785
7447,1763,1763
7448,1754,1754
7449,1758,1758
7450,1750,1750
7451,1749,1749
7452,1731,1731
7453,1734,1734
7454,1730,1730
7455,1743,1743
7456,1712,1712
7457,1710,1710
7458,1734,1734
7459,1711,1711
7460,1726,1726
7461,1697,1697
7462,1709,1709
7463,1712,1712
7464,1714,1714
7465,1728,1728
7466,1717,1717
7467,1707,1707
7468,1732,1732
7469,1776,1776
7470,1794,1794
7471,1840,1840
7472,1872,1872
7473,1895,1895
7474,1882,1882
7475,1859,1859
7476,1855,1855
7477,1810,1810
7478,1801,1801
7479,1775,1775
7480,1769,1769
7481,1743,1743
7482,1740,1740
7483,1742,1742
7484,1743,1743
7485,1718,1718
7486,1766,1766
7487,1723,1723
7488,1719,1719
7489,1725,1725
7490,1712,1712
7491,1723,1723
7492,1717,1717
7493,1725,1725
7494,1698,1698
7495,1712,1712
7496,1711,1711
7497,1715,1715
7498,1735,1735
7499,1731,1731
7500,1728,1728
7501,1755,1755
7502,1810,1810
7503,1874,1874
7504,1891,1891
7505,1917,1917
7506,1929,1929
7507,1899,1899
7508,1872,1872
7509,1851,1851
7510,1824,1824
7511,1837,1837
7512,1790,1790
7513,1796,1796
7514,1777,1777
7515,1769,1769
7516,1744,1744
7517,1762,1762
7518,1743,1743
7519,1741,1741
7520,1744,1744
7521,1744,1744
7522,1755,1755
7523,1749,1749
7524,1721,1721
7525,1711,1711
7526,1715,1715
7527,1712,1712
7528,1712,1712
7529,1729,1729
7530,1741,1741
7531,1724,1724
7532,1744,1744
7533,1776,1776
7534,1811,1811
7535,1862,1862
7536,1911,1911
7537,1946,1946
7538,1962,1962
7539,1927,1927
7540,1921,1921
7541,1887,1887
7542,1851,1851
7543,1840,1840
7544,1808,1808
7545,1808,1808
7546,1776,1776
7547,1749,1749
7548,1735,1735
7549,1726,1726
7550,1743,1743
7551,1722,1722
7552,1739,1739
7553,1728,1728
7554,1729,1729
7555,1714,1714
7556,1725,1725
7557,1691,1691
7558,1712,1712
7559,1712,1712
7560,1699,1699
7561,1705,1705
7562,1713,1713
7563,1707,1707
7564,1685,1685
7565,1709,1709
7566,1773,1773
7567,1803,1803
7568,1872,1872
7569,1889,1889
7570,1925,1925
7571,1959,1959
7572,1947,1947
7573,1909,1909
7574,1881,1881
7575,1841,1841
7576,1838,1838
7577,1790,1790
7578,1792,1792
7579,1761,1761
7580,1765,1765
7581,1733,1733
7582,1743,1743
7583,1756,1756
7584,1729,1729
7585,1759,1759
7586,1735,1735
7587,1730,1730
7588,1717,1717
7589,1714,1714
7590,1708,1708
7591,1690,1690
7592,1712,1712
7593,1691,1691
7594,1712,1712
7595,1699,1699
7596,1706,1706
7597,1699,1699
7598,1744,1744
7599,1798,1798
7600,1833,1833
7601,1895,1895
7602,1942,1942
7603,1969,1969
7604,1951,1951
7605,1939,1939
7606,1873,1873
7607,1851,1851
7608,1827,1827
7609,1776,1776
7610,1779,1779
7611,1750,1750
7612,1743,1743
7613,1728,1728
7614,1727,1727
7615,1721,1721
7616,1735,1735
7617,1745,1745
7618,1741,1741
7619,1717,1717
7620,1745,1745
7621,1710,1710
7622,1715,1715
7623,1707,1707
7624,1712,1712
7625,1703,1703
7626,1716,1716
7627,1696,1696
7628,1712,1712
7629,1759,1759
7630,1826,1826
7631,1891,1891
7632,1946,1946
7633,1956,1956
7634,1965,1965
7635,1941,1941
7636,1909,1909
7637,1849,1849
7638,1836,1836
7639,1787,1787
7640,1787,1787
7641,1739,1739
7642,1712,1712
7643,1678,1678
7644,1669,1669
7645,1680,1680
7646,1651,1651
7647,1657,1657
7648,1659,1659
7649,1663,1663
7650,1680,1680
7651,1653,1653
7652,1670,1670
7653,1657,1657
7654,1647,1647
7655,1648,1648
7656,1661,1661
7657,1649,1649
7658,1682,1682
7659,1717,1717
7660,1769,1769
7661,1815,1815
7662,1891,1891
7663,1945,1945
7664,1963,1963
7665,1949,1949
7666,1914,1914
7667,1874,1874
7668,1854,1854
7669,1808,1808
7670,1821,1821
7671,1787,1787
7672,1755,1755
7673,1744,1744
7674,1723,1723
7675,1714,1714
7676,1718,1718
7677,1706,1706
7678,1693,1693
7679,1685,1685
7680,1706,1706
7681,1651,1651
7682,1630,1630
7683,1655,1655
7684,1654,1654
7685,1630,1630
7686,1650,1650
7687,1647,1647
7688,1642,1642
7689,1680,1680
7690,1653,1653
7691,1680,1680
7692,1767,1767
7693,1856,1856
7694,1923,1923
7695,1962,1962
7696,1994,1994
7697,1984,1984
7698,1930,1930
7699,1893,1893
7700,1877,1877
7701,1847,1847
7702,1808,1808
7703,1775,1775
7704,1743,1743
7705,1692,1692
7706,1689,1689
7707,1709,1709
7708,1692,1692
7709,1681,1681
7710,1649,1649
7711,1662,1662
7712,1631,1631
7713,1649,1649
7714,1639,1639
7715,1655,1655
7716,1649,1649
7717,1632,1632
7718,1629,1629
7719,1642,1642
7720,1641,1641
7721,1643,1643
7722,1647,1647
7723,1649,1649
7724,1651,1651
7725,1707,1707
7726,1802,1802
7727,1851,1851
7728,1936,1936
7729,1963,1963
7730,1973,1973
7731,1943,1943
7732,1905,1905
7733,1862,1862
7734,1812,1812
7735,1808,1808
7736,1749,1749
7737,1747,1747
7738,1699,1699
7739,1680,1680
7740,1680,1680
7741,1680,1680
7742,1649,1649
7743,1670,1670
7744,1648,1648
7745,1662,1662
7746,1638,1638
7747,1638,1638
7748,1617,1617
7749,1618,1618
7750,1639,1639
7751,1621,1621
7752,1602,1602
7753,1616,1616
7754,1610,1610
7755,1615,1615
7756,1621,1621
7757,1605,1605
7758,1677,1677
7759,1771,1771
7760,1823,1823
7761,1904,1904
7762,1952,1952
7763,1957,1957
7764,1921,1921
7765,1888,1888
7766,1858,1858
7767,1792,1792
7768,1799,1799
7769,1733,1733
7770,1716,1716
7771,1699,1699
7772,1682,1682
7773,1683,1683
7774,1675,1675
7775,1671,1671
7776,1648,1648
7777,1648,1648
7778,1639,1639
7779,1629,1629
7780,1627,1627
7781,1622,1622
7782,1616,1616
7783,1620,1620
7784,1616,1616
7785,1593,1593
7786,1593,1593
7787,1603,1603
7788,1605,1605
7789,1600,1600
7790,1616,1616
7791,1661,1661
7792,1741,1741
7793,1827,1827
7794,1899,1899
7795,1959,1959
7796,1980,1980
7797,1954,1954
7798,1943,1943
7799,1900,1900
7800,1846,1846
7801,1829,1829
7802,1779,1779
7803,1754,1754
7804,1742,1742
7805,1706,1706
7806,1680,1680
7807,1685,1685
7808,1648,1648
7809,1660,1660
7810,1649,1649
7811,1638,1638
7812,1633,1633
7813,1615,1615
7814,1599,1599
7815,1599,1599
7816,1613,1613
7817,1590,1590
7818,1584,1584
7819,1588,1588
7820,1580,1580
7821,1591,1591
7822,1577,1577
7823,1617,1617
7824,1597,1597
7825,1629,1629
7826,1616,1616
7827,1648,1648
7828,1741,1741
7829,1779,1779
7830,1898,1898
7831,1972,1972
7832,1986,1986
7833,1985,1985
7834,1951,1951
7835,1931,1931
7836,1878,1878
7837,1829,1829
7838,1811,1811
7839,1779,1779
7840,1749,1749
7841,1733,1733
7842,1713,1713
7843,1667,1667
7844,1657,1657
7845,1648,1648
7846,1651,1651
7847,1631,1631
7848,1623,1623
7849,1627,1627
7850,1614,1614
7851,1614,1614
7852,1603,1603
7853,1615,1615
7854,1615,1615
7855,1601,1601
7856,1611,1611
7857,1607,1607
7858,1598,1598
7859,1613,1613
7860,1613,1613
7861,1620,1620
7862,1625,1625
7863,1636,1636
7864,1645,1645
7865,1707,1707
7866,1753,1753
7867,1831,1831
7868,1906,1906
7869,1945,1945
7870,1949,1949
7871,1950,1950
7872,1895,1895
7873,1849,1849
7874,1840,1840
7875,1799,1799
7876,1761,1761
7877,1728,1728
7878,1707,1707
7879,1715,1715
7880,1706,1706
7881,1680,1680
7882,1680,1680
7883,1683,1683
7884,1675,1675
7885,1678,1678
7886,1655,1655
7887,1655,1655
7888,1690,1690
7889,1649,1649
7890,1647,1647
7891,1665,1665
7892,1658,1658
7893,1634,1634
7894,1645,1645
7895,1654,1654
7896,1652,1652
7897,1655,1655
7898,1670,1670
7899,1660,1660
7900,1649,1649
7901,1696,1696
7902,1750,1750
7903,1795,1795
7904,1867,1867
7905,1920,1920
7906,1935,1935
7907,1913,1913
7908,1878,1878
7909,1866,1866
7910,1840,1840
7911,1797,1797
7912,1757,1757
7913,1744,1744
7914,1733,1733
7915,1711,1711
7916,1712,1712
7917,1711,1711
7918,1707,1707
7919,1714,1714
7920,1708,1708
7921,1708,1708
7922,1701,1701
7923,1701,1701
7924,1690,1690
7925,1691,1691
7926,1676,1676
7927,1675,1675
7928,1686,1686
7929,1680,1680
7930,1670,1670
7931,1692,1692
7932,1679,1679
7933,1685,1685
7934,1690,1690
7935,1717,1717
7936,1764,1764
7937,1837,1837
7938,1863,1863
7939,1924,1924
7940,1936,1936
7941,1903,1903
7942,1882,1882
7943,1840,1840
7944,1829,1829
7945,1779,1779
7946,1771,1771
7947,1766,1766
7948,1733,1733
7949,1729,1729
7950,1718,1718
7951,1723,1723
7952,1709,1709
7953,1709,1709
7954,1708,1708
7955,1718,1718
7956,1694,1694
7957,1683,1683
7958,1683,1683
7959,1681,1681
7960,1691,1691
7961,1686,1686
7962,1670,1670
7963,1680,1680
7964,1687,1687
7965,1690,1690
7966,1709,1709
7967,1726,1726
7968,1795,1795
7969,1827,1827
7970,1903,1903
7971,1914,1914
7972,1929,1929
7973,1929,1929
7974,1904,1904
7975,1860,1860
7976,1835,1835
7977,1822,1822
7978,1811,1811
7979,1760,1760
7980,1775,1775
7981,1744,1744
7982,1746,1746
7983,1730,1730
7984,1727,1727
7985,1729,1729
7986,1716,1716
7987,1720,1720
7988,1715,1715
7989,1699,1699
7990,1698,1698
7991,1712,1712
7992,1699,1699
7993,1672,1672
7994,1682,1682
7995,1675,1675
7996,1675,1675
7997,1667,1667
7998,1678,1678
7999,1719,1719
8000,1775,1775
8001,1840,1840
8002,1904,1904
8003,1928,1928
8004,1936,1936
8005,1940,1940
8006,1902,1902
8007,1894,1894
8008,1851,1851
8009,1830,1830
8010,1804,1804
8011,1772,1772
8012,1758,1758
8013,1765,1765
8014,1714,1714
8015,1677,1677
8016,1680,1680
8017,1674,1674
8018,1690,1690
8019,1684,1684
8020,1658,1658
8021,1651,1651
8022,1631,1631
8023,1650,1650
8024,1634,1634
8025,1657,1657
8026,1653,1653
8027,1681,1681
8028,1645,1645
8029,1648,1648
8030,1669,1669
8031,1653,1653
8032,1735,1735
8033,1789,1789
8034,1850,1850
8035,1882,1882
8036,1924,1924
8037,1904,1904
8038,1888,1888
8039,1871,1871
8040,1834,1834
8041,1821,1821
8042,1781,1781
8043,1776,1776
8044,1767,1767
8045,1711,1711
8046,1734,1734
8047,1733,1733
8048,1696,1696
8049,1682,1682
8050,1711,1711
8051,1712,1712
8052,1680,1680
8053,1690,1690
8054,1680,1680
8055,1667,1667
8056,1667,1667
8057,1689,1689
8058,1665,1665
8059,1667,1667
8060,1661,1661
8061,1658,1658
8062,1687,1687
8063,1703,1703
8064,1759,1759
8065,1807,1807
8066,1854,1854
8067,1900,1900
8068,1881,1881
8069,1877,1877
8070,1899,1899
8071,1844,1844
